0.000000,5.385165,5.385165,5.385165,5.385165,3.672555
1.000000,3.768411,3.752530,3.748735,3.747629,2.965151
2.000000,3.046275,3.020200,3.012974,3.009913,2.696451
3.000000,2.611189,2.577268,2.568499,2.562454,2.349324
4.000000,2.300221,2.269911,2.261520,2.251897,2.270832
5.000000,2.066823,2.047722,2.034005,2.020679,2.683476
6.000000,1.881670,1.872317,1.853621,1.837122,2.247146
7.000000,1.727857,1.728134,1.705090,1.686252,1.989047
8.000000,1.598694,1.606832,1.580704,1.557920,1.809804
9.000000,1.483654,1.495671,1.471740,1.447414,1.579832
10.000000,1.370565,1.391530,1.375647,1.350522,1.365142
11.000000,1.273605,1.300227,1.288067,1.263847,1.364701
12.000000,1.188008,1.217850,1.209951,1.186131,1.339281
13.000000,1.109503,1.142778,1.138922,1.115922,1.231535
14.000000,1.033507,1.070017,1.071556,1.050762,0.889276
15.000000,0.967761,0.998851,1.010969,0.990741,1.002776
16.000000,0.907575,0.934784,0.955883,0.935235,1.125321
17.000000,0.850696,0.875287,0.904473,0.882967,1.140417
18.000000,0.801223,0.820891,0.857129,0.834803,1.321409
19.000000,0.764578,0.772300,0.810433,0.788955,1.527230
20.000000,0.726615,0.726852,0.762726,0.745166,1.468525
21.000000,0.701185,0.689416,0.720830,0.703809,2.058333
22.000000,0.677666,0.653615,0.680594,0.664750,1.951971
23.000000,0.658793,0.623526,0.644147,0.628893,2.080810
24.000000,0.645482,0.603690,0.611372,0.596004,2.180056
25.000000,0.642693,0.588779,0.579381,0.568226,2.139656
26.000000,0.636647,0.582858,0.555263,0.548319,2.125397
27.000000,0.656892,0.599024,0.546856,0.544373,2.113449
28.000000,0.749552,0.683888,0.590526,0.594770,2.172968
29.000000,2.173372,2.164180,1.791820,2.030566,2.106579
30.000000,2.095373,2.175527,1.815114,1.986213,1.800821
31.000000,1.974758,2.111235,1.825086,1.941880,1.576620
32.000000,1.822095,2.039077,1.824972,1.894488,1.383452
33.000000,1.568419,1.909418,1.801207,1.835526,0.884004
34.000000,1.298627,1.761789,1.786724,1.776061,0.720498
35.000000,1.149651,1.653569,1.784873,1.720504,1.054415
36.000000,0.940755,1.496474,1.747863,1.657574,0.544216
37.000000,0.725722,1.322538,1.701368,1.597066,0.329730
38.000000,0.661252,1.167841,1.662896,1.554469,0.566279
39.000000,0.642566,1.020809,1.621678,1.523999,0.626398
40.000000,0.677312,0.962779,1.618605,1.525353,1.258633
41.000000,0.795897,0.911545,1.581817,1.522742,1.119820
42.000000,0.979687,0.887826,1.554103,1.524993,1.201500
43.000000,1.056357,0.891379,1.504727,1.521461,0.902514
44.000000,1.177828,0.941167,1.462994,1.540288,1.195946
45.000000,1.151625,0.946590,1.418370,1.553694,1.136143
46.000000,1.161575,1.016992,1.373459,1.564292,1.162946
47.000000,1.144653,1.113202,1.324445,1.573584,1.111544
48.000000,1.241961,1.203486,1.276494,1.582687,1.321170
49.000000,1.297514,1.304442,1.231378,1.588491,1.453088
50.000000,1.415085,1.343872,1.208072,1.600665,1.666829
51.000000,1.702393,1.482698,1.229364,1.611203,2.439346
52.000000,1.951443,1.601596,1.255076,1.617379,2.074494
53.000000,2.124099,1.782470,1.322154,1.616956,2.005297
54.000000,2.227392,1.920439,1.407528,1.610428,1.965453
55.000000,2.301960,2.083642,1.485648,1.609897,2.146978
56.000000,2.253913,2.239753,1.624717,1.614687,2.289312
57.000000,2.221902,2.328744,1.772305,1.611475,2.051405
58.000000,2.170827,2.334493,1.886271,1.598072,1.903539
59.000000,2.120419,2.302649,1.979632,1.582427,1.852132
60.000000,1.967179,2.208462,1.982959,1.564639,1.489063
61.000000,1.770828,2.050884,1.978981,1.550633,1.344551
62.000000,1.502504,1.874517,1.920521,1.520157,0.748052
63.000000,1.303481,1.745732,1.897255,1.523275,0.906553
64.000000,1.024540,1.584718,1.823880,1.516674,0.454532
65.000000,0.817025,1.420919,1.759193,1.495078,0.460829
66.000000,0.619764,1.241054,1.696060,1.500543,0.391102
67.000000,0.881037,1.246489,1.743043,1.584506,2.091220
68.000000,1.215278,1.303643,1.800731,1.672007,2.446136
69.000000,1.512738,1.289598,1.804440,1.724467,1.726470
70.000000,1.507467,1.167458,1.717495,1.685016,0.224469
71.000000,1.599379,1.105652,1.630605,1.671573,0.659675
72.000000,1.226094,1.077623,1.542404,1.639714,0.236135
73.000000,0.721721,1.030368,1.461873,1.624677,0.203961
74.000000,0.476256,1.095957,1.411521,1.615679,0.754530
75.000000,0.686638,1.205620,1.368417,1.622132,1.117456
76.000000,0.871286,1.362277,1.328300,1.637781,1.433059
77.000000,1.243431,1.321748,1.307841,1.662326,1.660986
78.000000,1.493581,1.144894,1.266183,1.658024,1.047916
79.000000,1.493792,1.005167,1.203628,1.634276,0.510970
80.000000,1.421442,1.112698,1.170056,1.609813,0.583762
81.000000,1.214922,1.147898,1.143589,1.558216,0.485721
82.000000,1.204830,1.411287,1.220599,1.551109,1.609104
83.000000,1.560397,1.777840,1.322934,1.562499,2.122492
84.000000,2.201514,2.135268,1.503811,1.591125,2.504361
85.000000,2.547462,2.333677,1.670652,1.596103,2.036340
86.000000,2.716830,2.391649,1.823718,1.583195,1.802703
87.000000,2.593383,2.364668,1.821414,1.575792,1.738853
88.000000,2.500699,2.469072,1.811498,1.594045,2.131483
89.000000,2.267622,2.521390,1.829018,1.598715,1.783686
90.000000,2.034829,2.449521,1.917728,1.597028,1.266793
91.000000,1.894147,2.400531,1.961748,1.607575,1.336045
92.000000,1.872475,2.322603,2.062288,1.674371,1.733670
93.000000,1.687006,2.166831,2.107366,1.709827,1.352830
94.000000,1.615489,2.016864,2.119069,1.774231,1.496995
95.000000,1.749898,1.974890,2.138071,1.857691,1.904982
96.000000,1.838492,1.941349,2.123364,1.927794,1.755773
97.000000,1.652715,1.821872,2.029789,1.864659,0.944542
98.000000,1.488308,1.639065,1.951439,1.765359,0.693378
99.000000,1.220027,1.459558,1.876099,1.683965,0.314033
100.000000,0.841949,1.333076,1.799577,1.671352,0.157309
101.000000,0.397119,1.156907,1.709187,1.618991,-0.342921
102.000000,0.084037,0.920523,1.581016,1.583662,-0.555698
103.000000,-0.304235,0.669014,1.415363,1.530539,-1.169817
104.000000,-0.731645,0.340739,1.213918,1.443304,-1.612696
105.000000,-1.204889,-0.103473,1.018302,1.334163,-1.853608
106.000000,-1.521462,-0.541503,0.838169,1.221667,-1.661534
107.000000,-1.668240,-0.845239,0.676094,1.118831,-1.257505
108.000000,-1.635549,-1.109935,0.482361,1.049961,-1.095324
109.000000,-1.469282,-1.300463,0.310187,1.017755,-0.862678
110.000000,-1.302834,-1.484317,0.143097,0.973567,-1.076438
111.000000,-1.215313,-1.613708,-0.071507,0.925491,-1.263967
112.000000,-1.044610,-1.597349,-0.293885,0.879147,-0.472172
113.000000,-0.836382,-1.458696,-0.482337,0.823070,-0.150944
114.000000,-0.541381,-1.190040,-0.644607,0.773582,0.483329
115.000000,-0.112164,-0.842436,-0.828457,0.769199,0.880741
116.000000,0.227349,-0.590933,-1.063280,0.725973,0.289695
117.000000,0.133437,-0.541248,-1.337007,0.566044,-0.884685
118.000000,-0.018097,-0.503301,-1.560765,0.323801,-0.831746
119.000000,-0.454701,-0.580146,-1.775626,-0.029177,-1.441550
120.000000,-0.865470,-0.566198,-1.857403,-0.353445,-0.942099
121.000000,-1.090960,-0.504844,-1.826074,-0.779337,-0.742153
122.000000,-0.929175,-0.466380,-1.698832,-1.306021,-0.138848
123.000000,-0.703713,-0.423747,-1.496361,-1.777610,0.230847
124.000000,-0.174871,-0.375730,-1.214840,-2.086866,0.949067
125.000000,0.426967,-0.295298,-0.868102,-2.190996,1.710876
126.000000,1.125033,-0.079450,-0.515646,-2.077138,2.111810
127.000000,1.795423,0.416555,-0.153567,-1.721692,2.422854
128.000000,2.418686,1.056415,0.264132,-1.257410,2.666537
129.000000,2.672247,1.804956,0.667312,-0.759694,2.338013
130.000000,2.492703,2.251712,1.009417,-0.428888,1.471746
131.000000,2.171440,2.462720,1.321597,-0.112462,0.979626
132.000000,1.856049,2.492451,1.554938,0.264357,1.028625
133.000000,1.512844,2.426529,1.735434,0.771706,1.053621
134.000000,1.191093,2.246975,1.783525,1.302907,0.874006
135.000000,0.997063,1.994393,1.722907,1.752274,0.592304
136.000000,0.888226,1.749208,1.694528,2.049178,0.469320
137.000000,0.819646,1.534767,1.793100,2.233705,0.708074
138.000000,0.722310,1.287653,1.841654,2.305817,0.609169
139.000000,0.686793,1.084388,1.930513,2.321491,0.717781
140.000000,0.648318,0.953338,1.923362,2.294251,0.391121
141.000000,0.645411,0.892453,1.898275,2.276135,0.421693
142.000000,0.590729,0.828503,1.835560,2.180707,0.452733
143.000000,0.535044,0.745193,1.753862,2.064058,0.351443
144.000000,0.510360,0.715342,1.662983,1.941507,0.630238
145.000000,0.540536,0.710609,1.542683,1.802197,0.532664
146.000000,0.665641,0.779659,1.451872,1.763133,0.974797
147.000000,0.747568,0.796201,1.341268,1.797184,0.839886
148.000000,0.824624,0.813619,1.204581,1.810204,0.733720
149.000000,0.743060,0.757309,1.056587,1.830495,0.227637
150.000000,0.713288,0.760319,0.982778,1.822484,0.307658
151.000000,0.476971,0.706923,0.927964,1.786051,-0.326778
152.000000,0.252457,0.662491,0.878044,1.733120,-0.248053
153.000000,-0.171909,0.571992,0.795218,1.654276,-1.190340
154.000000,-0.753164,0.348276,0.692000,1.536469,-1.996125
155.000000,-1.656071,0.030888,0.583135,1.389820,-2.264366
156.000000,-2.456338,-0.739496,0.408501,1.209294,-2.838751
157.000000,-2.859883,-1.839083,0.153157,1.004104,-2.571312
158.000000,-2.971011,-2.949733,-0.187708,0.735381,-2.783302
159.000000,-2.816931,-3.107847,-0.541862,0.482381,-2.067295
160.000000,-2.658345,-3.036931,-0.882566,0.272870,-1.940977
161.000000,-2.263154,-2.765639,-1.155366,0.124597,-1.167525
162.000000,-1.920912,-2.584226,-1.415596,-0.049707,-1.065048
163.000000,-1.406005,-2.323544,-1.546832,-0.210543,-0.388880
164.000000,-1.154459,-2.132589,-1.758406,-0.408257,-0.834657
165.000000,-0.975901,-1.978054,-1.953545,-0.614497,-1.083027
166.000000,-0.968161,-1.776711,-2.169183,-0.828217,-1.123607
167.000000,-1.077588,-1.654090,-2.311449,-1.128313,-1.540315
168.000000,-1.273409,-1.481121,-2.341618,-1.387844,-1.333303
169.000000,-1.343611,-1.382056,-2.272375,-1.618886,-1.211671
170.000000,-1.357780,-1.293390,-2.214136,-1.758355,-1.187455
171.000000,-1.393483,-1.307274,-2.142808,-1.867072,-1.318545
172.000000,-1.181860,-1.237033,-2.038932,-1.871896,-0.541685
173.000000,-0.954709,-1.205520,-1.907723,-1.828349,-0.237811
174.000000,-0.792140,-1.152961,-1.788366,-1.823451,-0.415079
175.000000,-0.641445,-1.084450,-1.676081,-1.806719,-0.461923
176.000000,-0.317793,-0.946664,-1.499919,-1.781530,0.228143
177.000000,-0.176738,-0.773548,-1.347458,-1.750733,0.152965
178.000000,-0.060390,-0.602131,-1.171608,-1.708021,0.386896
179.000000,0.101485,-0.444851,-1.046833,-1.648124,0.313751
180.000000,0.725233,-0.082566,-0.825156,-1.529520,2.398369
181.000000,1.341244,0.400154,-0.626787,-1.390475,2.626516
182.000000,1.852627,0.751493,-0.467617,-1.311677,1.886570
183.000000,2.457382,1.250399,-0.281690,-1.171199,2.641942
184.000000,2.847008,1.838861,-0.032379,-1.004412,2.421884
185.000000,2.695835,2.389516,0.278635,-0.809845,2.223192
186.000000,2.392164,2.566818,0.596202,-0.575810,1.701683
187.000000,2.237268,2.593600,0.985689,-0.310859,1.543648
188.000000,2.091245,2.587941,1.430403,0.087446,2.004677
189.000000,1.938525,2.525291,1.800042,0.461119,1.730961
190.000000,1.686913,2.244870,2.015363,0.788220,1.044318
191.000000,1.577844,2.027984,2.195353,1.088516,1.200550
192.000000,1.396976,1.855817,2.184066,1.317495,0.689536
193.000000,1.042464,1.603280,2.094570,1.421122,0.290033
194.000000,0.701393,1.362057,2.004124,1.529268,0.098866
195.000000,0.696752,1.243621,1.997524,1.751795,1.008240
196.000000,0.725831,1.211406,1.962754,1.967349,1.321472
197.000000,0.840735,1.182616,1.925619,2.136407,1.227915
198.000000,0.991123,1.075212,1.867366,2.197003,0.992192
199.000000,1.268066,1.038511,1.850825,2.242084,1.412111
200.000000,1.443146,1.123907,1.792034,2.284513,1.833569
201.000000,1.535306,1.180194,1.727103,2.296647,1.743947
202.000000,1.746978,1.348382,1.734627,2.277246,2.175597
203.000000,2.100904,1.623431,1.744770,2.270397,2.566082
204.000000,2.223376,1.848461,1.729529,2.237197,2.028272
205.000000,2.265145,1.975450,1.728538,2.213218,2.081160
206.000000,2.288743,2.051684,1.747683,2.164377,1.964122
207.000000,2.160999,2.089004,1.751407,2.112676,1.608063
208.000000,1.976754,2.152503,1.734846,2.072448,1.681514
209.000000,1.868241,2.150354,1.722741,2.036378,1.502387
210.000000,1.641658,2.048834,1.716819,1.942937,0.989933
211.000000,1.361053,1.922435,1.682244,1.843793,0.629502
212.000000,1.205742,1.788782,1.694478,1.790231,0.869039
213.000000,1.008392,1.597066,1.723861,1.719406,0.768046
214.000000,0.847563,1.458671,1.759925,1.656912,0.748611
215.000000,0.645062,1.235047,1.703937,1.574034,0.023880
216.000000,0.477148,0.998765,1.624922,1.504883,-0.186489
217.000000,0.239170,0.793398,1.552280,1.442546,-0.270129
218.000000,0.261991,0.699858,1.560050,1.408726,0.891822
219.000000,0.276959,0.621495,1.539241,1.381663,0.830252
220.000000,0.509558,0.632415,1.510564,1.391649,1.085713
221.000000,0.750293,0.666647,1.477015,1.389412,0.900670
222.000000,0.958398,0.646233,1.405912,1.400708,0.679816
223.000000,0.843814,0.597072,1.284528,1.419033,0.298201
224.000000,0.701920,0.524983,1.185495,1.442924,0.017595
225.000000,0.459409,0.539658,1.073812,1.432588,-0.110404
226.000000,0.343143,0.642092,0.989538,1.429986,0.509022
227.000000,0.339986,0.797223,0.942644,1.443098,0.845056
228.000000,0.605737,0.851827,0.911974,1.486131,1.513025
229.000000,0.877897,0.881064,0.868548,1.498796,0.898547
230.000000,1.230951,0.873099,0.870789,1.493479,0.906819
231.000000,1.362350,0.893857,0.902181,1.487823,0.644153
232.000000,1.178134,0.901020,0.881202,1.441126,-0.022255
233.000000,0.338675,0.773592,0.799616,1.322917,-1.322973
234.000000,-0.358010,0.601132,0.698105,1.220406,-1.425881
235.000000,-0.594589,0.722658,0.778555,1.144677,0.102258
236.000000,-0.741133,0.637163,0.905595,1.063130,0.155464
237.000000,-0.561564,0.550487,1.103142,1.014085,0.658398
238.000000,-0.624514,-0.205368,0.937843,0.872358,-1.476129
239.000000,-0.844960,-0.924211,0.675150,0.705811,-1.988918
240.000000,-1.557543,-1.628126,0.239195,0.564074,-1.953633
241.000000,-2.112811,-2.151889,-0.312446,0.445054,-1.794421
242.000000,-2.530750,-2.382613,-0.977882,0.296217,-1.528852
243.000000,-2.083094,-2.072464,-1.346159,0.211393,-0.328282
244.000000,-1.303502,-1.554936,-1.231504,0.191257,0.804968
245.000000,-0.259983,-1.121396,-0.712128,0.335168,1.770821
246.000000,0.844389,-0.655633,-0.237114,0.555477,1.967829
247.000000,1.798842,-0.312431,0.177122,0.824838,1.844320
248.000000,2.309823,0.467956,0.500351,0.982369,1.890681
249.000000,2.553272,1.488549,1.276756,1.258233,2.259184
250.000000,2.613617,2.443926,2.156156,1.600742,2.534067
251.000000,2.628149,3.013941,2.865424,2.030461,2.494649
252.000000,2.434252,3.061124,3.013403,2.268965,1.511565
253.000000,2.234828,2.905003,3.119506,2.447155,1.337734
254.000000,1.950726,2.655909,3.061321,2.506906,1.073698
255.000000,1.598270,2.370970,2.821885,2.489844,0.880412
256.000000,1.277095,2.153597,2.670807,2.407853,1.004669
257.000000,1.123945,1.966530,2.491605,2.273735,0.824506
258.000000,1.074249,1.841471,2.527164,2.156240,1.120001
259.000000,0.935675,1.612579,2.477247,2.013657,0.462068
260.000000,0.908220,1.404481,2.462474,1.933168,0.763162
261.000000,0.799723,1.162874,2.399937,1.848435,0.509466
262.000000,0.737660,1.040890,2.334002,1.809957,0.542127
263.000000,0.611899,0.941248,2.219830,1.832088,0.543846
264.000000,0.636085,0.878643,2.082057,1.856831,0.584786
265.000000,0.583816,0.832907,1.919062,1.809583,0.527605
266.000000,0.502600,0.726364,1.739798,1.735041,0.119106
267.000000,0.290609,0.576352,1.546826,1.608259,-0.456272
268.000000,0.006963,0.355054,1.350619,1.555830,-0.790514
269.000000,-0.186216,0.271865,1.184993,1.579596,-0.298809
270.000000,-0.447896,0.112137,0.980414,1.592321,-0.678823
271.000000,-0.581024,0.009281,0.788187,1.631323,-0.410028
272.000000,-0.664694,-0.141315,0.649177,1.656448,-0.857232
273.000000,-0.925163,-0.430117,0.451344,1.584011,-2.228637
274.000000,-1.367793,-0.749163,0.272852,1.487489,-1.929874
275.000000,-1.745975,-1.127974,0.081442,1.336291,-1.987891
276.000000,-1.924827,-1.380430,-0.096316,1.211103,-1.155835
277.000000,-1.824091,-1.486543,-0.246743,1.110878,-0.688600
278.000000,-1.514170,-1.536710,-0.480427,0.982932,-0.932797
279.000000,-1.264626,-1.617051,-0.651953,0.811831,-0.825400
280.000000,-0.993610,-1.569526,-0.883203,0.575407,-0.808274
281.000000,-0.815292,-1.489846,-1.045067,0.312133,-0.351460
282.000000,-0.752081,-1.379720,-1.212617,0.118785,-0.369936
283.000000,-0.572420,-1.119338,-1.337185,-0.065936,-0.075392
284.000000,-0.538558,-0.972487,-1.486836,-0.291942,-0.729076
285.000000,-0.464022,-0.790182,-1.584792,-0.500774,-0.531956
286.000000,-0.342279,-0.635385,-1.545379,-0.691124,0.240879
287.000000,0.154316,-0.375424,-1.317525,-0.728608,1.792983
288.000000,0.648365,-0.038133,-1.047799,-0.816119,1.937702
289.000000,1.360450,0.350064,-0.848323,-0.751419,1.992361
290.000000,2.070869,0.834979,-0.584325,-0.693689,2.286609
291.000000,2.924186,1.613036,-0.152403,-0.228102,3.650873
292.000000,3.008748,2.179329,0.261945,0.185809,2.697397
293.000000,3.074067,2.631552,0.889217,0.764590,2.834353
294.000000,2.970860,2.866765,1.458046,1.245203,2.302985
295.000000,2.792464,2.906576,1.973067,1.639379,1.995499
296.000000,2.418200,2.819713,2.307688,2.017321,1.823143
297.000000,2.147190,2.608526,2.446100,2.312950,1.466872
298.000000,1.791343,2.395901,2.471860,2.463075,1.100651
299.000000,1.540361,2.224925,2.445638,2.464292,1.072224
300.000000,1.264224,2.023294,2.345014,2.405463,0.634815
301.000000,1.038684,1.753842,2.238053,2.331615,0.715619
302.000000,0.880027,1.561810,2.145145,2.284850,0.698386
303.000000,0.837969,1.376027,2.072414,2.323587,0.901801
304.000000,0.700415,1.183407,1.990176,2.266061,0.404661
305.000000,0.621003,1.003179,1.903698,2.200902,0.225971
306.000000,0.484252,0.816678,1.799491,2.090811,0.021201
307.000000,0.299018,0.641193,1.658920,1.963725,-0.218081
308.000000,0.053896,0.502985,1.538783,1.870797,-0.235358
309.000000,-0.129533,0.341738,1.419553,1.777596,-0.457295
310.000000,-0.237744,0.248960,1.316009,1.714619,-0.255644
311.000000,-0.270977,0.156048,1.155651,1.658890,-0.092947
312.000000,-0.149496,0.107644,1.054666,1.642038,0.417355
313.000000,0.083673,0.074624,0.954985,1.647069,0.915728
314.000000,0.471428,0.151917,0.895993,1.690485,1.336353
315.000000,0.856923,0.271727,0.854167,1.730115,1.446413
316.000000,1.103579,0.369122,0.786042,1.725729,0.786562
317.000000,0.970193,0.384930,0.677938,1.643658,-0.555854
318.000000,0.761279,0.452228,0.613226,1.588371,-0.174190
319.000000,0.423265,0.598024,0.552712,1.543992,-0.033594
320.000000,-0.138336,0.655589,0.503291,1.478668,-0.632509
321.000000,-0.640333,0.594422,0.401419,1.321843,-1.111925
322.000000,-0.594166,0.483374,0.323539,1.214449,-0.431781
323.000000,-0.554917,0.270344,0.214688,1.087158,-0.038261
324.000000,-0.440212,0.022842,0.216707,0.992475,0.511143
325.000000,-0.173043,-0.234075,0.259157,0.904341,0.539807
326.000000,0.454662,-0.183784,0.463180,0.844074,1.381993
327.000000,0.874796,0.105056,0.762197,0.791705,1.052067
328.000000,1.120874,0.280186,1.117711,0.758334,0.794096
329.000000,0.939908,0.261555,1.430937,0.674397,-0.237423
330.000000,0.555662,0.251173,1.545525,0.600376,-0.909936
331.000000,-0.070032,0.346184,1.535518,0.502810,-0.924444
332.000000,-0.577144,0.294975,1.237581,0.395925,-0.815715
333.000000,-1.160568,-0.025799,0.448002,0.190622,-1.391178
334.000000,-1.372807,-0.454367,-0.482239,0.050815,-1.128236
335.000000,-1.288360,-0.768441,-1.249150,-0.043678,-0.676502
336.000000,-1.233630,-1.276535,-1.705577,-0.127083,-0.787647
337.000000,-1.397296,-1.817521,-1.876612,-0.261106,-1.539256
338.000000,-1.371589,-2.148130,-2.074650,-0.398169,-1.312791
339.000000,-1.462076,-2.267369,-2.290316,-0.544486,-1.499309
340.000000,-1.453074,-2.102217,-2.150047,-0.651890,-0.650326
341.000000,-1.327842,-1.906033,-1.839808,-0.765114,-0.276148
342.000000,-0.914090,-1.685418,-1.641540,-0.957231,0.119316
343.000000,-0.538078,-1.381037,-1.535222,-1.258073,0.177722
344.000000,-0.079674,-1.102999,-1.511071,-1.550098,0.352894
345.000000,0.160326,-0.918402,-1.498341,-1.776235,0.353954
346.000000,0.522115,-0.599120,-1.488537,-1.702612,1.289497
347.000000,0.597464,-0.279739,-1.543101,-1.509891,0.353224
348.000000,0.791297,0.085363,-1.482376,-1.359850,0.923124
349.000000,1.210735,0.669360,-1.141000,-1.103639,1.989843
350.000000,1.672940,1.170120,-0.667495,-0.635293,2.210520
351.000000,1.935945,1.630616,-0.141496,0.146736,2.347025
352.000000,2.334271,1.994898,0.416918,0.954068,2.370278
353.000000,2.439540,2.200442,0.998780,1.593474,1.952176
354.000000,2.284115,2.264528,1.446980,1.951757,1.619485
355.000000,2.022806,2.230961,1.695679,2.100004,1.180105
356.000000,1.749691,2.106420,1.896582,2.029997,1.086671
357.000000,1.464211,2.068608,2.126495,2.001908,1.005863
358.000000,1.440179,2.095013,2.381154,2.210617,1.787631
359.000000,1.563366,2.082232,2.607093,2.564262,2.117820
360.000000,1.667690,1.997182,2.617309,2.754141,1.732573
361.000000,1.700527,1.862284,2.532637,2.767488,1.387049
362.000000,1.657682,1.679825,2.384126,2.666676,0.961024
363.000000,1.457831,1.528905,2.242099,2.599238,0.804777
364.000000,1.225685,1.437810,2.131995,2.532830,0.961383
365.000000,1.310945,1.525919,2.139479,2.561028,2.088200
366.000000,1.616049,1.698914,2.165722,2.630619,2.617536
367.000000,1.928066,1.835518,2.191856,2.662500,2.306860
368.000000,2.341520,1.966997,2.236661,2.696912,2.724551
369.000000,2.774329,2.148628,2.299057,2.761612,3.156413
370.000000,2.864351,2.302018,2.318181,2.733549,2.757640
371.000000,2.836467,2.453215,2.327039,2.689987,2.655299
372.000000,2.775727,2.554244,2.304798,2.616801,2.332708
373.000000,2.600663,2.585733,2.270895,2.532814,2.019474
374.000000,2.338713,2.563531,2.236430,2.449912,1.821852
375.000000,2.161333,2.485077,2.223762,2.388962,1.842025
376.000000,2.058090,2.417738,2.239900,2.347632,2.081360
377.000000,1.913554,2.321243,2.217619,2.291328,1.626709
378.000000,1.820181,2.205394,2.175790,2.233872,1.571444
379.000000,1.692934,2.024403,2.102550,2.149823,1.211602
380.000000,1.538527,1.863510,2.038746,2.067058,1.068138
381.000000,1.362870,1.727270,2.001457,2.001167,1.200622
382.000000,1.235543,1.596895,1.964873,1.930744,0.996265
383.000000,1.109666,1.492030,1.932742,1.873084,0.951084
384.000000,1.048421,1.403109,1.898093,1.826386,0.909143
385.000000,0.975296,1.292388,1.830107,1.783164,0.699363
386.000000,0.890471,1.162986,1.759342,1.753087,0.784605
387.000000,0.824601,1.067297,1.696424,1.725030,0.665543
388.000000,0.797868,0.990284,1.631867,1.697007,0.829949
389.000000,0.775030,0.948688,1.546497,1.665399,0.807177
390.000000,0.840871,0.942168,1.480949,1.651406,1.023346
391.000000,0.939153,0.942776,1.424983,1.654392,1.279947
392.000000,1.047927,0.957949,1.373886,1.661860,1.187893
393.000000,1.042181,0.940129,1.316502,1.658506,0.725086
394.000000,1.026226,0.917352,1.263440,1.651642,0.573065
395.000000,0.965295,0.926082,1.208379,1.629174,0.599145
396.000000,0.773843,0.907687,1.125224,1.591715,0.273783
397.000000,0.362630,0.837698,1.038776,1.543509,-1.221445
398.000000,-0.042179,0.733720,0.951076,1.486316,-1.499043
399.000000,-0.460500,0.641362,0.894357,1.416266,-0.987662
400.000000,-1.168784,0.434711,0.832350,1.342544,-1.616310
401.000000,-1.789583,0.085086,0.753751,1.264111,-1.433582
402.000000,-1.597879,-0.303544,0.706164,1.201656,-0.530096
403.000000,-0.950043,-0.500266,0.696653,1.167581,0.962673
404.000000,-0.059259,-0.445111,0.732463,1.158796,2.150304
405.000000,0.789540,-0.463747,0.777222,1.132501,1.346902
406.000000,1.704117,-0.092955,0.841795,1.093209,1.898842
407.000000,2.181812,0.838239,0.930760,1.074564,1.691021
408.000000,2.321795,1.838286,1.033828,1.063735,1.972118
409.000000,2.107436,2.382344,1.147077,1.070678,1.594105
410.000000,2.152332,2.866132,1.282766,1.100774,1.882696
411.000000,2.067995,3.039886,1.390314,1.120791,1.750904
412.000000,2.012964,2.973317,1.536050,1.161377,1.651834
413.000000,1.902784,2.756649,1.790003,1.211543,1.587958
414.000000,1.880197,2.495052,2.049998,1.275684,1.611091
415.000000,1.981938,2.488221,2.372485,1.411985,2.335224
416.000000,2.066741,2.426568,2.611710,1.549444,2.177832
417.000000,2.145900,2.391773,2.829009,1.709329,2.112241
418.000000,2.250968,2.363096,2.922827,1.868965,2.215907
419.000000,2.314093,2.357797,2.903248,2.026539,2.122700
420.000000,2.227003,2.314158,2.866110,2.137734,2.015031
421.000000,2.066323,2.219391,2.754686,2.150940,1.542553
422.000000,1.893956,2.120845,2.610188,2.131376,1.352684
423.000000,1.707120,2.036863,2.448575,2.129349,1.306728
424.000000,1.481182,1.928136,2.261635,2.094753,1.008742
425.000000,1.265986,1.773269,2.134317,2.048238,0.951687
426.000000,1.149220,1.644775,2.019048,2.016278,0.970941
427.000000,0.974565,1.477215,1.895721,1.990033,0.482445
428.000000,0.790516,1.297464,1.778532,1.957028,0.383712
429.000000,0.755778,1.172193,1.719099,1.943227,0.864764
430.000000,0.713782,1.042116,1.651409,1.936815,0.774580
431.000000,0.678398,0.965748,1.599789,1.931653,0.867618
432.000000,0.745717,0.900936,1.552123,1.905354,0.780132
433.000000,0.661924,0.757332,1.467783,1.817184,-0.308347
434.000000,0.358026,0.611176,1.373053,1.702992,-0.724439
435.000000,0.136785,0.501538,1.270775,1.637534,-0.227775
436.000000,-0.329518,0.293897,1.137118,1.541607,-1.237810
437.000000,-0.735270,0.165252,1.016324,1.471049,-0.922559
438.000000,-0.839946,0.054067,0.889421,1.406666,-0.703238
439.000000,-0.975095,-0.219036,0.734335,1.341009,-1.311173
440.000000,-1.279490,-0.538969,0.560853,1.264184,-1.499227
441.000000,-1.356905,-0.915460,0.402585,1.191723,-1.549467
442.000000,-1.481819,-1.276901,0.244024,1.126962,-1.425885
443.000000,-1.727447,-1.515513,0.041908,1.052084,-1.763057
444.000000,-1.956968,-1.776958,-0.210746,0.948229,-2.301701
445.000000,-2.129670,-2.081657,-0.537328,0.784139,-2.347004
446.000000,-2.780488,-2.549760,-1.202794,0.445519,-3.856324
447.000000,-3.115160,-2.840256,-1.878161,0.032024,-3.265574
448.000000,-3.331692,-3.074994,-2.555252,-0.573726,-3.371891
449.000000,-3.244328,-3.044924,-2.927412,-1.211338,-2.701594
450.000000,-3.023439,-2.887934,-2.950817,-1.760733,-2.016418
451.000000,-2.504174,-2.643942,-2.782575,-2.067667,-1.112477
452.000000,-2.076608,-2.450306,-2.606814,-2.249402,-0.903681
453.000000,-1.602924,-2.291376,-2.422017,-2.342226,-0.863307
454.000000,-1.155196,-2.106024,-2.232927,-2.312002,-0.501304
455.000000,-0.891150,-1.979965,-2.128134,-2.285745,-0.773010
456.000000,-0.776074,-1.732440,-2.000124,-2.223328,-0.568846
457.000000,-0.687703,-1.498763,-1.900971,-2.124542,-0.485641
458.000000,-0.641064,-1.231844,-1.838430,-2.046485,-0.648180
459.000000,-0.632382,-0.984602,-1.761602,-1.983308,-0.448039
460.000000,-0.520174,-0.780684,-1.681757,-1.909974,-0.239551
461.000000,-0.470183,-0.692827,-1.621500,-1.857088,-0.326660
462.000000,-0.429986,-0.625138,-1.573605,-1.808316,-0.284126
463.000000,-0.338989,-0.555225,-1.524806,-1.739257,-0.235101
464.000000,-0.382079,-0.577265,-1.493708,-1.695434,-0.667724
465.000000,-0.439139,-0.543199,-1.452062,-1.663072,-0.479737
466.000000,-0.455449,-0.525233,-1.330624,-1.613237,-0.377477
467.000000,-0.345795,-0.448857,-1.175579,-1.552334,0.272737
468.000000,-0.250963,-0.347603,-0.978175,-1.509472,0.248675
469.000000,-0.059157,-0.281073,-0.801552,-1.470633,0.156030
470.000000,0.147566,-0.217005,-0.648300,-1.429381,0.390859
471.000000,0.242794,-0.188432,-0.589238,-1.414898,-0.088145
472.000000,0.348394,-0.065398,-0.502829,-1.383770,0.743560
473.000000,0.569114,0.120029,-0.391219,-1.343903,1.149614
474.000000,0.932839,0.495265,-0.285458,-1.289118,1.466026
475.000000,1.290688,0.952847,-0.117223,-1.232093,1.538975
476.000000,1.707776,1.465382,0.063799,-1.088910,1.451704
477.000000,1.762487,1.762149,0.271923,-0.929333,1.293231
478.000000,1.685027,1.895090,0.553531,-0.691506,1.309406
479.000000,1.544392,1.901213,0.810725,-0.452154,1.153794
480.000000,1.434093,1.810658,1.010723,-0.240879,0.964520
481.000000,0.854922,1.577619,1.008952,-0.197641,-1.812248
482.000000,-0.236679,1.090070,0.829718,-0.238204,-2.931797
483.000000,-1.416448,0.616496,0.658483,-0.265872,-2.238829
484.000000,-2.184418,0.115281,0.623108,-0.325277,-1.687964
485.000000,-2.592045,-0.499772,0.523848,-0.352662,-1.634671
486.000000,-2.487013,-1.287457,0.343696,-0.450542,-1.867564
487.000000,-2.429121,-2.269693,-0.173339,-0.706655,-2.715961
488.000000,-2.279002,-2.734295,-0.552263,-0.884891,-1.837062
489.000000,-2.412189,-2.998211,-1.057668,-1.260576,-2.463758
490.000000,-2.496168,-3.039249,-1.572839,-1.725343,-2.337957
491.000000,-2.514647,-2.870624,-1.954443,-2.155396,-2.277559
492.000000,-2.443821,-2.707739,-2.403035,-2.543435,-2.435354
493.000000,-2.447037,-2.590772,-2.691092,-2.753263,-2.149065
494.000000,-2.188183,-2.425027,-2.755702,-2.662780,-1.389220
495.000000,-1.936793,-2.272241,-2.739939,-2.552256,-1.176350
496.000000,-1.659471,-2.102744,-2.651586,-2.422002,-0.905796
497.000000,-1.377712,-1.914565,-2.559609,-2.383184,-1.004843
498.000000,-1.125670,-1.798393,-2.455129,-2.321304,-0.915939
499.000000,-1.025102,-1.645087,-2.352160,-2.252249,-0.907345
500.000000,-0.930364,-1.486393,-2.243580,-2.182560,-0.723678
501.000000,-0.822452,-1.297842,-2.066522,-2.059187,-0.383789
502.000000,-0.700518,-1.093285,-1.892534,-1.998875,-0.411265
503.000000,-0.586051,-0.904617,-1.760810,-1.955826,-0.358684
504.000000,-0.432217,-0.775755,-1.651291,-1.913227,-0.161049
505.000000,-0.420554,-0.724040,-1.593053,-1.914131,-0.713012
506.000000,-0.527466,-0.722728,-1.546201,-1.922049,-0.937551
507.000000,-0.663417,-0.721986,-1.475802,-1.928173,-1.096061
508.000000,-0.781195,-0.709537,-1.429959,-1.919047,-0.876072
509.000000,-0.979108,-0.702931,-1.359359,-1.909522,-0.971298
510.000000,-1.195356,-0.779010,-1.319003,-1.924794,-1.777704
511.000000,-1.490103,-0.963734,-1.296439,-1.909006,-2.265761
512.000000,-1.732497,-1.159388,-1.249108,-1.864454,-2.033491
513.000000,-1.951758,-1.358204,-1.198906,-1.827423,-1.681287
514.000000,-1.967888,-1.537592,-1.171921,-1.783232,-0.959110
515.000000,-1.804744,-1.644083,-1.163488,-1.746752,-0.952086
516.000000,-1.479745,-1.698969,-1.170900,-1.701545,-0.680109
517.000000,-1.063696,-1.662823,-1.150591,-1.617068,-0.139345
518.000000,-0.687325,-1.654631,-1.140245,-1.563955,-0.066248
519.000000,-0.064831,-1.396759,-1.054143,-1.442104,1.658808
520.000000,0.538659,-1.000206,-0.990724,-1.327382,1.391539
521.000000,0.863924,-0.571500,-1.005981,-1.230510,0.620426
522.000000,1.065869,-0.089524,-1.008349,-1.107751,0.748369
523.000000,1.234472,0.362589,-1.010209,-0.986585,0.753658
524.000000,1.142671,0.763038,-0.991683,-0.888037,1.295936
525.000000,1.173121,1.178211,-0.849665,-0.787658,1.535144
526.000000,1.292377,1.447701,-0.668378,-0.712696,1.203318
527.000000,1.442904,1.648654,-0.369373,-0.608803,1.478687
528.000000,1.522029,1.764403,-0.074095,-0.511685,1.211576
529.000000,1.433140,1.618573,0.257882,-0.414055,0.971089
530.000000,1.331776,1.541062,0.787507,-0.311684,1.108053
531.000000,1.261655,1.537025,1.416617,-0.241117,0.925958
532.000000,1.220410,1.572514,2.067230,-0.126404,1.296891
533.000000,1.306441,1.650880,2.563586,0.036595,1.596089
534.000000,1.447302,1.669959,2.755235,0.224218,1.622655
535.000000,1.495227,1.627267,2.767241,0.529438,1.379959
536.000000,1.490676,1.572760,2.650051,0.904879,1.027426
537.000000,1.429989,1.500711,2.508805,1.375429,1.101927
538.000000,1.328463,1.467699,2.392520,1.810509,1.156658
539.000000,1.163843,1.421972,2.160289,2.102775,0.845980
540.000000,1.095740,1.389303,2.012204,2.345487,1.063452
541.000000,1.024474,1.334875,1.905741,2.450661,0.688732
542.000000,1.216392,1.396269,1.912799,2.593121,2.126514
543.000000,1.410208,1.427312,1.912463,2.620322,2.140491
544.000000,1.784832,1.508958,1.911884,2.597274,2.505073
545.000000,2.089855,1.606892,1.889715,2.556714,2.326329
546.000000,2.423160,1.741962,1.886895,2.503635,2.239998
547.000000,2.416648,1.863946,1.869016,2.433027,2.143101
548.000000,2.290112,1.923914,1.834618,2.346228,1.575206
549.000000,2.041395,1.993709,1.806019,2.205755,1.375518
550.000000,1.740104,1.979849,1.750413,2.078689,0.919630
551.000000,1.489191,2.010201,1.722062,2.006081,1.035818
552.000000,1.231246,1.881987,1.678492,1.933644,0.924161
553.000000,1.037974,1.732659,1.614898,1.858363,0.634841
554.000000,0.916669,1.560255,1.569002,1.783683,0.805929
555.000000,0.923354,1.416615,1.547851,1.716295,0.949485
556.000000,0.832487,1.242492,1.532601,1.656317,0.600827
557.000000,0.841736,1.108915,1.533711,1.607572,0.973184
558.000000,0.904041,1.035077,1.531721,1.571483,0.919135
559.000000,0.850812,0.943087,1.533190,1.535196,0.530363
560.000000,0.719014,0.883579,1.512400,1.492482,0.294578
561.000000,0.684432,0.819029,1.520491,1.467249,0.392844
562.000000,0.632660,0.803079,1.462516,1.445605,0.761615
563.000000,0.700756,0.878126,1.427916,1.432811,1.290971
564.000000,0.887672,0.942614,1.367737,1.425825,1.354745
565.000000,1.163032,1.005466,1.319481,1.434748,1.465296
566.000000,1.433019,1.132407,1.277967,1.464544,1.578059
567.000000,1.601027,1.210424,1.234746,1.491604,1.520453
568.000000,1.709234,1.334484,1.245608,1.527702,1.778701
569.000000,1.795255,1.512719,1.269258,1.579415,1.712258
570.000000,1.883021,1.740497,1.337910,1.625367,1.799087
571.000000,1.916523,1.932410,1.390604,1.681752,1.622957
572.000000,1.925744,2.053543,1.451103,1.669059,1.497525
573.000000,1.937201,2.142777,1.560631,1.666976,1.904926
574.000000,1.956306,2.214282,1.664198,1.645061,2.005468
575.000000,1.899060,2.216748,1.743376,1.619863,1.806158
576.000000,1.834517,2.132282,1.820219,1.580342,1.460688
577.000000,1.764244,2.023564,1.842599,1.532690,1.295659
578.000000,1.564392,1.853127,1.840595,1.501586,0.978506
579.000000,1.434655,1.759959,1.887920,1.496997,1.362694
580.000000,1.358065,1.683074,1.947665,1.522490,1.447135
581.000000,1.278402,1.607244,1.960601,1.525815,1.104419
582.000000,1.176259,1.515441,1.923261,1.522080,0.801961
583.000000,1.151105,1.398982,1.859679,1.535412,0.849202
584.000000,1.078328,1.291186,1.807159,1.545770,1.003849
585.000000,0.890988,1.156618,1.723574,1.531022,0.526018
586.000000,0.833965,1.089928,1.657230,1.547789,0.841550
587.000000,0.794607,1.020104,1.584730,1.536576,0.585126
588.000000,0.658429,0.946772,1.478397,1.514306,0.137919
589.000000,0.444671,0.814060,1.377057,1.509011,-0.066093
590.000000,0.381524,0.687474,1.291037,1.527233,0.190106
591.000000,0.068646,0.528053,1.192104,1.518522,-0.875164
592.000000,-0.481536,0.296672,1.058306,1.465355,-2.455826
593.000000,-1.006276,0.039721,0.908715,1.397064,-2.155263
594.000000,-1.585479,-0.292194,0.744734,1.328702,-2.069726
595.000000,-2.312080,-0.657445,0.561183,1.241733,-2.368552
596.000000,-2.416245,-1.058474,0.417158,1.167989,-1.507001
597.000000,-2.006066,-1.381365,0.300787,1.116222,-0.785485
598.000000,-1.804880,-1.698067,0.165180,1.023467,-1.331258
599.000000,-1.547986,-1.877832,-0.017549,0.941255,-0.946395
600.000000,-1.220387,-2.003520,-0.247157,0.846221,-0.904824
601.000000,-1.113249,-1.952646,-0.492469,0.754131,-1.036790
602.000000,-1.172892,-1.747583,-0.751173,0.655247,-1.087257
603.000000,-1.181976,-1.630248,-1.078475,0.493950,-1.375869
604.000000,-1.383459,-1.595782,-1.493297,0.260007,-1.872711
605.000000,-1.624916,-1.553944,-1.829429,-0.021083,-2.045851
606.000000,-1.779132,-1.579240,-2.100746,-0.313243,-1.822991
607.000000,-1.822989,-1.622751,-2.205759,-0.616043,-1.395608
608.000000,-1.841571,-1.631388,-2.219953,-0.956909,-1.547848
609.000000,-1.857581,-1.730491,-2.216376,-1.444101,-1.957386
610.000000,-1.807773,-1.807982,-2.199170,-1.910571,-1.824758
611.000000,-1.810758,-1.875717,-2.130027,-2.240680,-1.860874
612.000000,-1.867562,-1.922916,-2.009393,-2.398521,-1.730432
613.000000,-1.808892,-1.893247,-1.899518,-2.420200,-1.299318
614.000000,-1.682465,-1.827913,-1.817727,-2.403495,-1.340819
615.000000,-1.606474,-1.761131,-1.742310,-2.331236,-1.452244
616.000000,-1.571371,-1.744252,-1.730251,-2.292361,-1.700676
617.000000,-1.554832,-1.766523,-1.751892,-2.231239,-1.660682
618.000000,-1.487362,-1.705127,-1.710112,-2.117664,-0.921252
619.000000,-1.304155,-1.551267,-1.663283,-1.995203,-0.349981
620.000000,-1.086763,-1.412343,-1.625212,-1.910181,-0.280397
621.000000,-0.539074,-1.150480,-1.531951,-1.767855,1.035784
622.000000,0.119738,-0.857253,-1.432252,-1.601658,1.272057
623.000000,0.597115,-0.612517,-1.331253,-1.472493,1.089095
624.000000,0.804380,-0.405696,-1.234782,-1.381554,0.491194
625.000000,1.105655,-0.087324,-1.091435,-1.263235,1.080003
626.000000,0.864335,0.151721,-1.017437,-1.222328,-0.060314
627.000000,0.608069,0.418148,-0.961662,-1.206184,0.088086
628.000000,0.189337,0.467929,-0.944535,-1.207962,-0.829455
629.000000,-0.108107,0.427995,-0.895371,-1.228036,-0.865241
630.000000,-0.844328,0.208982,-0.927432,-1.298872,-2.033138
631.000000,-1.237708,-0.160880,-0.932817,-1.355004,-1.626679
632.000000,-1.790462,-0.696512,-0.997805,-1.441206,-2.167646
633.000000,-1.966670,-1.156897,-1.076063,-1.496074,-1.587066
634.000000,-1.820390,-1.332680,-1.050933,-1.473008,-0.324946
635.000000,-1.183245,-1.440539,-0.906572,-1.390233,0.722639
636.000000,-0.514437,-1.263876,-0.644706,-1.290806,1.202780
637.000000,0.103341,-1.253410,-0.437488,-1.259004,0.358097
638.000000,0.562859,-1.098137,-0.315336,-1.225023,0.246333
639.000000,0.635265,-0.970664,-0.304389,-1.169966,-0.019718
640.000000,0.244901,-0.771396,-0.456297,-1.166675,-0.822115
641.000000,-0.369216,-0.714646,-0.989522,-1.178274,-1.183475
642.000000,-1.067163,-0.787411,-1.940412,-1.287481,-2.208829
643.000000,-1.779873,-1.062661,-2.864240,-1.483651,-2.409361
644.000000,-2.391676,-1.662740,-3.394698,-1.728776,-2.625735
645.000000,-2.640501,-2.282004,-3.579409,-1.939319,-2.386758
646.000000,-2.674013,-2.690653,-3.379539,-2.055998,-2.068131
647.000000,-2.366044,-2.674701,-3.077003,-2.028593,-1.245362
648.000000,-2.117802,-2.651844,-2.821144,-2.074294,-1.403539
649.000000,-1.855234,-2.590911,-2.638173,-2.145617,-1.424904
650.000000,-1.772459,-2.555305,-2.505351,-2.263258,-1.969280
651.000000,-1.796790,-2.523208,-2.452616,-2.436226,-2.156938
652.000000,-2.173093,-2.547726,-2.488788,-2.663611,-2.890913
653.000000,-2.430357,-2.527242,-2.521697,-2.779093,-2.665311
654.000000,-2.713171,-2.550593,-2.640180,-2.860429,-2.924242
655.000000,-2.643896,-2.447165,-2.634121,-2.813280,-1.997386
656.000000,-2.555847,-2.388265,-2.627233,-2.729241,-1.980961
657.000000,-2.323073,-2.368973,-2.561618,-2.637375,-1.759456
658.000000,-2.165616,-2.356505,-2.511343,-2.550505,-1.864613
659.000000,-1.893578,-2.306658,-2.434606,-2.452652,-1.576773
660.000000,-1.777555,-2.216239,-2.344738,-2.340885,-1.462702
661.000000,-1.653483,-2.116580,-2.259298,-2.251100,-1.388005
662.000000,-1.594681,-1.982519,-2.175462,-2.173246,-1.478473
663.000000,-1.547315,-1.885523,-2.110338,-2.127627,-1.616787
664.000000,-1.554513,-1.760331,-2.047184,-2.107329,-1.614526
665.000000,-1.578469,-1.716889,-1.995874,-2.101267,-1.599819
666.000000,-1.615544,-1.675627,-1.959747,-2.099248,-1.605292
667.000000,-1.603829,-1.636914,-1.939934,-2.073216,-1.442979
668.000000,-1.484185,-1.544917,-1.892687,-2.024309,-1.007850
669.000000,-1.340688,-1.470113,-1.844080,-1.973167,-0.864352
670.000000,-1.179017,-1.401653,-1.782484,-1.917243,-0.764012
671.000000,-1.059256,-1.368740,-1.735034,-1.878186,-1.038372
672.000000,-0.941643,-1.316533,-1.656628,-1.827282,-0.900562
673.000000,-0.915636,-1.247617,-1.583551,-1.778129,-0.880095
674.000000,-0.950240,-1.188624,-1.499497,-1.734264,-1.026678
675.000000,-0.972838,-1.110831,-1.446755,-1.690494,-0.839857
676.000000,-0.942834,-1.031582,-1.396605,-1.657787,-0.888704
677.000000,-0.941422,-0.966932,-1.356754,-1.643995,-0.882133
678.000000,-1.006957,-0.984645,-1.323189,-1.639438,-1.237237
679.000000,-1.053393,-1.026523,-1.305455,-1.637038,-1.325388
680.000000,-1.144418,-1.077841,-1.290962,-1.622308,-1.252658
681.000000,-1.202129,-1.075604,-1.273372,-1.598063,-0.977850
682.000000,-1.274655,-1.095674,-1.251023,-1.552544,-0.989682
683.000000,-1.253582,-1.127250,-1.219694,-1.509082,-1.046297
684.000000,-1.115008,-1.113428,-1.176271,-1.442707,-0.728989
685.000000,-0.985351,-1.133329,-1.129668,-1.405732,-0.709941
686.000000,-1.041176,-1.193748,-1.091697,-1.375536,-1.261273
687.000000,-1.123061,-1.274965,-1.067702,-1.354417,-1.397242
688.000000,-1.222757,-1.307850,-1.086757,-1.329036,-1.527032
689.000000,-1.649001,-1.437849,-1.154388,-1.331998,-2.511203
690.000000,-2.241425,-1.687105,-1.268520,-1.355633,-3.069500
691.000000,-2.505843,-1.901941,-1.344329,-1.373913,-2.367895
692.000000,-2.486515,-1.989597,-1.404599,-1.371758,-1.431008
693.000000,-2.274876,-1.960583,-1.438479,-1.346418,-0.653570
694.000000,-1.697611,-1.873016,-1.418837,-1.300961,0.226606
695.000000,-0.858803,-1.723697,-1.395975,-1.243088,0.632802
696.000000,-0.029522,-1.437873,-1.332989,-1.167056,1.088630
697.000000,0.621501,-1.108456,-1.244841,-1.090813,1.239026
698.000000,1.013693,-0.794581,-1.122164,-1.049617,1.012822
699.000000,1.079939,-0.399602,-1.017369,-1.031369,0.557489
700.000000,1.042922,0.137487,-0.925321,-1.024200,0.495216
701.000000,0.873446,0.582705,-0.867393,-0.998527,0.346632
702.000000,0.747648,0.936524,-0.778645,-0.972001,0.712106
703.000000,0.672046,1.158883,-0.679451,-0.946548,0.706774
704.000000,0.639320,1.189795,-0.626345,-0.916180,0.409731
705.000000,0.600151,1.145751,-0.579088,-0.907049,0.320037
706.000000,0.435377,0.926536,-0.539913,-0.924841,-0.361255
707.000000,0.078899,0.606320,-0.529427,-0.969448,-0.762385
708.000000,-0.236694,0.333622,-0.477342,-0.971663,-0.577027
709.000000,-0.630036,0.023114,-0.360943,-1.005740,-1.174260
710.000000,-1.149756,-0.409873,-0.199370,-1.103034,-1.768149
711.000000,-1.318555,-0.695631,-0.007357,-1.192144,-1.118251
712.000000,-1.332500,-0.994932,0.080694,-1.272206,-0.896574
713.000000,-1.415009,-1.296364,0.001251,-1.368496,-1.028398
714.000000,-1.342603,-1.497708,-0.250254,-1.509519,-0.917836
715.000000,-1.148199,-1.658482,-0.656229,-1.673215,-0.944438
716.000000,-1.256509,-1.803194,-1.463540,-1.871077,-1.576681
717.000000,-1.557307,-1.972021,-2.585276,-2.135172,-2.136014
718.000000,-1.792148,-2.121718,-3.311320,-2.356860,-2.051803
719.000000,-2.046895,-2.194561,-3.466319,-2.425727,-2.173474
720.000000,-2.244418,-2.181158,-3.355079,-2.339484,-2.159964
721.000000,-2.331839,-2.253783,-3.218608,-2.315279,-2.247711
722.000000,-2.338481,-2.345955,-3.133258,-2.384586,-2.313279
723.000000,-2.304299,-2.371743,-3.015706,-2.457996,-2.097807
724.000000,-2.122466,-2.311297,-2.828669,-2.476661,-1.537276
725.000000,-1.965043,-2.251027,-2.678377,-2.495258,-1.508789
726.000000,-1.791783,-2.142891,-2.520793,-2.507769,-1.407391
727.000000,-1.624103,-2.017301,-2.387400,-2.516100,-1.457145
728.000000,-1.487690,-1.908217,-2.286134,-2.489166,-1.415493
729.000000,-1.450760,-1.798580,-2.179663,-2.428698,-1.358653
730.000000,-1.384713,-1.689297,-2.058744,-2.353273,-1.180703
731.000000,-1.304986,-1.566600,-1.969619,-2.270237,-1.004395
732.000000,-1.210321,-1.438035,-1.900862,-2.208707,-0.978523
733.000000,-1.129187,-1.330962,-1.840254,-2.155998,-1.011943
734.000000,-1.070348,-1.286537,-1.795261,-2.105602,-1.082476
735.000000,-1.115683,-1.276701,-1.773255,-2.075942,-1.438130
736.000000,-1.221303,-1.285643,-1.738369,-2.035865,-1.524542
737.000000,-1.357082,-1.298590,-1.692185,-1.995644,-1.621128
738.000000,-1.564163,-1.353562,-1.670067,-1.982352,-1.987532
739.000000,-1.699741,-1.392043,-1.633643,-1.947056,-1.718586
740.000000,-1.639976,-1.394880,-1.577214,-1.879341,-1.137689
741.000000,-1.583818,-1.428573,-1.525946,-1.838612,-1.230693
742.000000,-1.595797,-1.508984,-1.491093,-1.823919,-1.673797
743.000000,-1.549368,-1.595368,-1.470420,-1.811680,-1.778898
744.000000,-1.557999,-1.672575,-1.481074,-1.802556,-1.783870
745.000000,-1.648300,-1.685654,-1.482311,-1.784768,-1.527681
746.000000,-1.756651,-1.706193,-1.497664,-1.760403,-1.709844
747.000000,-1.792176,-1.728766,-1.516421,-1.728554,-1.837832
748.000000,-1.783968,-1.699621,-1.534800,-1.698188,-1.740946
749.000000,-1.637678,-1.637662,-1.528765,-1.649546,-1.066889
750.000000,-1.400402,-1.577277,-1.503256,-1.588364,-0.288270
751.000000,-1.127074,-1.506906,-1.491370,-1.529737,-0.309906
752.000000,-0.821285,-1.381300,-1.482371,-1.469994,-0.371018
753.000000,-0.556216,-1.251687,-1.476872,-1.421260,-0.549088
754.000000,-0.460795,-1.130084,-1.472033,-1.399056,-0.659934
755.000000,-0.464325,-1.005261,-1.429379,-1.369487,-0.286452
756.000000,-0.462007,-0.856613,-1.382059,-1.345241,-0.278598
757.000000,-0.439653,-0.678741,-1.326755,-1.318248,-0.241033
758.000000,-0.515179,-0.569220,-1.272574,-1.310289,-0.933940
759.000000,-0.657940,-0.586283,-1.252906,-1.316008,-1.350750
760.000000,-0.829626,-0.673032,-1.262544,-1.323507,-1.030384
761.000000,-1.069611,-0.789887,-1.280033,-1.348988,-1.332508
762.000000,-1.368929,-0.926705,-1.273397,-1.382295,-1.546615
763.000000,-1.694113,-1.141367,-1.296626,-1.436470,-2.375057
764.000000,-1.774222,-1.273229,-1.284006,-1.468712,-1.554986
765.000000,-2.154177,-1.585337,-1.342854,-1.510250,-2.493903
766.000000,-2.566068,-1.991862,-1.431190,-1.569842,-2.933872
767.000000,-2.831872,-2.390769,-1.524613,-1.632125,-2.823804
768.000000,-2.600469,-2.480775,-1.553352,-1.634621,-1.761284
769.000000,-2.429916,-2.417716,-1.599688,-1.630314,-1.262176
770.000000,-2.180571,-2.406561,-1.718266,-1.665881,-1.389052
771.000000,-1.783633,-2.302018,-1.800296,-1.679157,-0.980600
772.000000,-1.370188,-2.169327,-1.865895,-1.660399,-0.886176
773.000000,-1.117649,-1.941329,-1.890435,-1.619963,-0.609802
774.000000,-0.944924,-1.796362,-1.885814,-1.570460,-0.480961
775.000000,-0.780914,-1.604088,-1.914094,-1.541894,-0.641931
776.000000,-0.734481,-1.376944,-1.937855,-1.507243,-0.765259
777.000000,-0.689128,-1.128834,-1.941928,-1.457800,-0.678531
778.000000,-0.602419,-0.942310,-1.858062,-1.388168,-0.215142
779.000000,-0.560939,-0.825008,-1.760767,-1.359179,-0.291231
780.000000,-0.629447,-0.773890,-1.742441,-1.404755,-0.983106
781.000000,-0.842354,-0.865203,-1.765103,-1.487197,-1.785026
782.000000,-1.043782,-0.946990,-1.763272,-1.557741,-1.617723
783.000000,-1.395175,-1.082540,-1.731860,-1.627749,-1.784612
784.000000,-1.664873,-1.198960,-1.723730,-1.674521,-1.487519
785.000000,-1.696880,-1.250165,-1.644013,-1.716858,-1.091433
786.000000,-1.495184,-1.255614,-1.514174,-1.742003,-0.752464
787.000000,-1.349661,-1.291503,-1.384314,-1.771913,-0.841074
788.000000,-1.174683,-1.413885,-1.330805,-1.777046,-0.975857
789.000000,-0.946980,-1.488172,-1.285610,-1.745944,-0.421058
790.000000,-0.948725,-1.542127,-1.265619,-1.754349,-1.104755
791.000000,-1.031723,-1.477865,-1.271517,-1.747316,-1.017431
792.000000,-1.002343,-1.394618,-1.268004,-1.719772,-0.592684
793.000000,-0.775684,-1.196261,-1.258923,-1.640945,0.054836
794.000000,-0.679155,-1.023332,-1.265957,-1.596395,0.125607
795.000000,-0.400153,-0.913649,-1.269876,-1.519182,-0.026971
796.000000,-0.000638,-0.767270,-1.237074,-1.393640,0.478252
797.000000,0.409435,-0.485478,-1.180831,-1.236626,1.025735
798.000000,0.679420,-0.126888,-1.163312,-1.125788,1.159523
799.000000,1.041815,0.216949,-1.109877,-1.024775,1.592020
800.000000,1.169062,0.523395,-1.037061,-0.947523,0.568379
801.000000,1.092938,0.746571,-0.877418,-0.904786,0.244956
802.000000,0.919552,0.888184,-0.710049,-0.865350,0.296123
803.000000,0.868185,1.015297,-0.429968,-0.820506,0.927422
804.000000,0.646323,1.081482,-0.166484,-0.796738,0.672831
805.000000,0.554356,1.091123,0.023045,-0.783668,0.159011
806.000000,0.908024,1.252792,0.366747,-0.693111,1.667431
807.000000,1.322865,1.388477,0.823181,-0.586032,1.906129
808.000000,1.578531,1.509616,1.367457,-0.510342,1.900528
809.000000,1.709897,1.466054,1.747682,-0.459710,1.257034
810.000000,1.968182,1.608697,2.217048,-0.287195,1.500442
811.000000,1.660687,1.617932,2.359412,-0.023996,0.580394
812.000000,1.415168,1.660143,2.392038,0.363470,1.019285
813.000000,1.111775,1.554498,2.258445,0.884259,0.639458
814.000000,0.995548,1.499443,2.138147,1.493444,0.728497
815.000000,0.806100,1.501635,2.045071,2.016139,0.657785
816.000000,0.889160,1.369822,1.945392,2.359295,0.923723
817.000000,0.717854,1.148560,1.766825,2.428139,0.227433
818.000000,0.566530,0.910807,1.582309,2.377297,-0.113248
819.000000,0.396758,0.770163,1.390152,2.232878,-0.053511
820.000000,0.366497,0.649883,1.339411,2.228406,0.560051
821.000000,0.297328,0.678240,1.331058,2.214443,0.770051
822.000000,0.518976,0.686698,1.345227,2.187423,1.263397
823.000000,0.882305,0.761048,1.316359,2.110852,1.253509
824.000000,1.744691,1.033621,1.404095,2.140730,2.852198
825.000000,2.328562,1.308282,1.509876,2.153316,2.340495
826.000000,2.599085,1.509206,1.481810,2.096943,1.777606
827.000000,2.514038,1.778836,1.412038,1.984036,1.255115
828.000000,2.498422,2.144031,1.379238,1.899023,1.634519
829.000000,2.417588,2.606568,1.498537,1.863705,2.696556
830.000000,2.399562,2.792832,1.599053,1.889458,2.430034
831.000000,2.470808,2.853849,1.788842,1.934250,2.361914
832.000000,2.601419,2.828305,1.941831,1.976857,2.344030
833.000000,2.492759,2.695275,2.044385,1.948040,1.658514
834.000000,2.294404,2.496739,2.141770,1.956374,1.859031
835.000000,2.279938,2.452141,2.282948,2.026893,2.374885
836.000000,2.200833,2.411340,2.348252,2.010291,2.065866
837.000000,2.046781,2.362072,2.390884,1.966172,1.719335
838.000000,1.941445,2.247378,2.382429,1.909799,1.336788
839.000000,1.706050,2.017494,2.314078,1.863845,0.809358
840.000000,1.393953,1.830212,2.218831,1.811765,0.800354
841.000000,1.131533,1.660327,2.126489,1.802894,0.761660
842.000000,0.944876,1.505500,2.035981,1.777451,0.813511
843.000000,0.759565,1.378987,1.935082,1.747397,0.442726
844.000000,0.743364,1.270305,1.816652,1.731841,0.734254
845.000000,0.758932,1.124723,1.736328,1.727540,0.879630
846.000000,0.729811,0.974444,1.665643,1.701254,0.613348
847.000000,0.686826,0.854501,1.620020,1.700853,0.603368
848.000000,0.798735,0.809123,1.588362,1.727388,0.984116
849.000000,0.876471,0.836627,1.525035,1.756037,1.141911
850.000000,0.906007,0.858016,1.464171,1.758853,1.039657
851.000000,1.038212,0.897599,1.409186,1.760128,1.192123
852.000000,1.204015,0.940524,1.352863,1.752317,1.269296
853.000000,1.219892,1.009720,1.316530,1.735114,0.907512
854.000000,1.053366,0.989315,1.242155,1.661809,0.198321
855.000000,0.973520,0.980538,1.144642,1.614213,0.593732
856.000000,0.642950,0.939112,1.025565,1.560261,-0.433261
857.000000,0.385775,0.962760,0.948192,1.541791,0.223883
858.000000,0.546871,1.070083,0.947372,1.549439,2.022749
859.000000,1.104517,1.216077,1.007981,1.530909,2.325027
860.000000,1.702076,1.443762,1.088392,1.519997,2.365313
861.000000,2.531883,1.663423,1.180382,1.504005,2.151006
862.000000,2.855581,1.882288,1.284625,1.484370,2.125709
863.000000,2.866716,2.273524,1.483118,1.514934,2.639384
864.000000,2.635545,2.593114,1.626575,1.512162,1.878701
865.000000,2.329602,2.622789,1.722385,1.458927,1.425140
866.000000,1.879277,2.529164,1.764635,1.377925,0.356171
867.000000,1.361103,2.263244,1.749324,1.294089,-0.213906
868.000000,0.700791,1.881817,1.664007,1.228395,-0.375664
869.000000,0.255769,1.570490,1.581169,1.210327,-0.093812
870.000000,-0.253755,1.182859,1.453037,1.170411,-0.794324
871.000000,-0.427989,0.881720,1.342764,1.149744,-0.395357
872.000000,-0.422270,0.604319,1.243748,1.136368,-0.165889
873.000000,-0.334832,0.253255,1.201576,1.164559,0.044296
874.000000,-0.311161,-0.014801,1.226500,1.174671,0.059775
875.000000,0.154163,-0.081613,1.308903,1.223706,1.173356
876.000000,0.295989,-0.124990,1.383203,1.257416,0.135496
877.000000,0.095558,-0.248120,1.297010,1.240760,-1.078947
878.000000,0.162569,-0.149028,1.211842,1.256646,0.305462
879.000000,0.390613,0.011814,1.151474,1.292210,0.937777
880.000000,0.285926,0.307434,1.060338,1.329931,0.784262
881.000000,0.559182,0.613594,1.006348,1.376314,1.136664
882.000000,0.908810,0.726270,0.856374,1.357366,0.286613
883.000000,0.915777,0.804950,0.626082,1.371019,0.356491
884.000000,0.711348,0.841668,0.435994,1.433288,0.141720
885.000000,0.690953,0.761970,0.347236,1.508473,0.707511
886.000000,0.573673,0.900460,0.406359,1.667124,0.717456
887.000000,0.849272,1.406415,0.659021,1.811588,1.326051
888.000000,0.912699,1.462756,0.914610,1.772811,0.534911
889.000000,1.123068,1.453395,1.255119,1.730711,0.938411
890.000000,1.170937,1.469316,1.851561,1.668474,0.990624
891.000000,1.210449,1.393620,2.388996,1.602128,0.967825
892.000000,0.925621,1.344923,2.629530,1.455489,0.209598
893.000000,0.842386,1.264445,2.572497,1.211449,0.167153
894.000000,0.512978,1.133249,2.321716,0.976902,-0.465019
895.000000,0.222811,0.961932,1.914996,0.812191,-0.151048
896.000000,-0.210564,0.737178,1.698549,0.739638,-0.624414
897.000000,-0.561665,0.321258,1.657651,0.699245,-1.139153
898.000000,-1.047013,-0.074150,1.272591,0.621522,-1.786616
899.000000,-1.363918,-0.561067,0.783257,0.487263,-1.774889
900.000000,-1.789470,-1.064332,0.302027,0.427949,-1.916165
901.000000,-2.147103,-1.570480,-0.344653,0.247872,-2.161708
902.000000,-2.282965,-1.850706,-0.809655,0.013120,-1.916912
903.000000,-1.947687,-1.876516,-1.017384,-0.084319,-0.553297
904.000000,-1.662075,-1.841595,-1.178746,-0.216522,-0.624038
905.000000,-1.505925,-1.935100,-1.549424,-0.727487,-1.274019
906.000000,-1.242856,-1.919267,-1.797135,-1.013852,-1.022817
907.000000,-1.113874,-1.896680,-2.128000,-1.145952,-1.385313
908.000000,-1.293179,-1.805736,-2.258866,-1.587986,-1.411847
909.000000,-1.389549,-1.686798,-2.348735,-2.047134,-1.180830
910.000000,-1.281756,-1.528805,-2.359877,-2.285183,-0.877667
911.000000,-1.076129,-1.264975,-2.267830,-2.345305,-0.133462
912.000000,-0.749668,-1.003455,-2.091243,-2.185597,0.177727
913.000000,-0.430096,-0.919173,-1.955188,-2.071502,0.084926
914.000000,0.060466,-0.717754,-1.710004,-1.804956,1.050608
915.000000,0.429476,-0.479741,-1.552430,-1.700897,0.767564
916.000000,0.506434,-0.338329,-1.431896,-1.692727,0.199826
917.000000,0.563475,-0.128492,-1.275265,-1.747071,0.423128
918.000000,0.555167,0.049685,-1.124375,-1.763754,-0.015250
919.000000,0.414346,0.261161,-0.950170,-1.784892,0.448147
920.000000,0.418998,0.489261,-0.751050,-1.782243,0.874151
921.000000,0.619869,0.644068,-0.518480,-1.775463,1.100261
922.000000,0.680497,0.716951,-0.324355,-1.731375,0.625131
923.000000,0.863145,0.810330,-0.247888,-1.680277,0.585141
924.000000,0.831022,0.711362,-0.185864,-1.596020,0.201072
925.000000,0.780529,0.708718,-0.013352,-1.510532,0.663074
926.000000,0.859146,0.917124,0.220446,-1.328939,1.424867
927.000000,1.266635,1.213088,0.625697,-1.031504,2.169102
928.000000,1.831066,1.684175,1.193433,-0.568597,2.709903
929.000000,2.235130,1.923577,1.702290,-0.103492,2.186408
930.000000,2.478004,2.055980,2.120682,0.456359,2.218299
931.000000,2.385527,2.011056,2.223002,0.993714,1.439188
932.000000,2.138148,1.979540,2.190366,1.462592,1.103466
933.000000,1.784580,1.960442,2.152224,1.717543,1.075229
934.000000,1.520459,1.969263,2.008755,1.940310,0.996365
935.000000,1.224896,1.939408,1.899290,2.154034,0.922629
936.000000,1.002458,1.806805,1.810170,2.205665,0.430736
937.000000,0.944900,1.670885,1.747629,2.301111,0.846889
938.000000,0.919343,1.485007,1.733289,2.348651,0.975638
939.000000,0.765341,1.275503,1.647282,2.276356,0.207840
940.000000,0.600376,1.037049,1.553291,2.175725,0.094044
941.000000,0.424520,0.831445,1.439077,2.000531,-0.531442
942.000000,0.421599,0.808317,1.444695,1.912748,0.935032
943.000000,0.382650,0.787703,1.460263,1.845302,0.915215
944.000000,0.895171,0.936305,1.569095,1.789315,2.177822
945.000000,1.296391,1.044075,1.625432,1.738831,1.646485
946.000000,1.795460,1.247630,1.648580,1.735744,1.675351
947.000000,1.946672,1.399854,1.635234,1.730863,1.747993
948.000000,1.967881,1.460127,1.547962,1.729420,1.282115
949.000000,1.646294,1.548517,1.460484,1.689278,0.784053
950.000000,1.253527,1.506005,1.304318,1.603826,-0.170775
951.000000,0.787994,1.503748,1.193001,1.518824,-0.442255
952.000000,0.404682,1.411790,1.148175,1.492943,0.142914
953.000000,0.042935,1.294851,1.091775,1.468468,-0.182616
954.000000,-0.169029,1.044872,1.063770,1.477934,0.018789
955.000000,-0.181544,0.836523,1.036517,1.475081,-0.216232
956.000000,0.040804,0.665846,1.102797,1.471229,0.417203
957.000000,0.263357,0.511397,1.169912,1.453253,1.011563
958.000000,0.666252,0.448089,1.228540,1.394505,1.163061
959.000000,0.975974,0.497019,1.357440,1.352168,1.127978
960.000000,1.342959,0.834475,1.484075,1.295302,1.224440
961.000000,1.276453,1.065062,1.583595,1.249515,0.262618
962.000000,1.123231,1.162106,1.555907,1.234570,0.489651
963.000000,0.706096,1.129824,1.457540,1.184576,-0.413249
964.000000,0.140759,0.891018,1.172652,1.112865,-1.019723
965.000000,-0.595407,0.583971,0.882328,1.016337,-1.507020
966.000000,-1.311755,-0.072584,0.457089,0.908512,-2.262932
967.000000,-2.163784,-1.044631,-0.157511,0.699344,-2.671466
968.000000,-2.400714,-1.747139,-0.670099,0.509360,-1.801573
969.000000,-2.529323,-2.379782,-1.212827,0.329481,-2.069054
970.000000,-2.303723,-2.610750,-1.435986,0.238063,-1.038450
971.000000,-1.976332,-2.618899,-1.612858,0.203826,-0.951104
972.000000,-1.416069,-2.492234,-1.723124,0.098062,-0.219238
973.000000,-1.013454,-2.253728,-1.705198,-0.004007,-0.034418
974.000000,-0.530838,-1.985121,-1.662615,-0.332472,-0.022909
975.000000,-0.404389,-1.780158,-1.656413,-0.772293,-0.535505
976.000000,-0.126483,-1.398299,-1.587289,-1.163842,0.271305
977.000000,-0.090327,-1.011597,-1.639203,-1.659958,-0.063444
978.000000,0.142203,-0.600938,-1.554565,-1.774003,1.042525
979.000000,0.380831,-0.135544,-1.485030,-1.730352,0.996066
980.000000,0.986279,0.319279,-1.305270,-1.299069,1.886714
981.000000,1.216716,0.678594,-1.128043,-0.945790,1.246738
982.000000,1.511619,0.937528,-0.971450,-0.684576,1.318297
983.000000,1.601828,1.202006,-0.696099,-0.296285,1.528977
984.000000,1.493136,1.297917,-0.494637,-0.148509,0.647365
985.000000,0.991348,1.298803,-0.386737,-0.193319,-0.334868
986.000000,1.113787,1.499999,0.135808,0.161274,1.690808
987.000000,1.247542,1.734665,0.783994,0.480769,1.796563
988.000000,1.370622,1.832163,1.351115,0.845194,1.926092
989.000000,1.752590,1.973009,1.974348,1.336951,2.215648
990.000000,2.234530,1.995719,2.355673,1.790844,2.146291
991.000000,2.318197,2.107630,2.644206,2.354132,2.266865
992.000000,2.411215,2.226788,2.783229,2.785209,2.422860
993.000000,2.343937,2.221722,2.759344,2.970995,1.918562
994.000000,2.185764,2.241082,2.671102,3.007249,1.665625
995.000000,2.082525,2.322365,2.619073,3.010208,1.756744
996.000000,1.900272,2.199616,2.486589,2.948584,1.436899
997.000000,1.718739,2.102925,2.400451,2.904813,1.536500
998.000000,1.708677,2.055606,2.320953,2.838696,1.876286
999.000000,1.749844,1.996394,2.259106,2.779012,1.880352
1000.000000,1.704786,1.916047,2.151225,2.644398,1.542230
1001.000000,1.752582,1.848215,2.094190,2.541163,1.674527
1002.000000,1.761512,1.761579,2.039710,2.427425,1.597040
1003.000000,1.712156,1.729683,1.990982,2.334834,1.645238
1004.000000,1.651388,1.717741,1.973137,2.257783,1.587131
1005.000000,1.596691,1.666649,1.965073,2.189644,1.284588
1006.000000,1.499430,1.639565,1.896655,2.110561,1.192236
1007.000000,1.404079,1.597018,1.832245,2.050584,1.114258
1008.000000,1.318716,1.532280,1.779552,1.985968,1.226084
1009.000000,1.260967,1.476425,1.728675,1.938029,1.319359
1010.000000,1.187826,1.415717,1.665133,1.861812,0.919410
1011.000000,1.096040,1.323752,1.591193,1.800333,0.722634
1012.000000,0.937257,1.200238,1.492484,1.730139,0.280084
1013.000000,0.685071,1.039224,1.405441,1.653486,-0.067164
1014.000000,0.442038,0.901702,1.345656,1.613353,0.150142
1015.000000,0.208028,0.769912,1.272637,1.590623,-0.267200
1016.000000,0.012639,0.651291,1.223648,1.536651,-0.165193
1017.000000,0.003077,0.575580,1.188721,1.500259,0.416258
1018.000000,-0.007056,0.434728,1.115991,1.454841,-0.189452
1019.000000,-0.091482,0.258880,1.039814,1.406267,-0.200462
1020.000000,-0.076540,0.113065,0.980465,1.361558,-0.294290
1021.000000,-0.237718,-0.078724,0.887988,1.301212,-1.040321
1022.000000,-0.389031,-0.145297,0.817840,1.246916,-0.027024
1023.000000,-0.276852,-0.116361,0.746039,1.217036,0.400149
1024.000000,-0.064916,-0.091021,0.680025,1.204129,0.794468
1025.000000,-0.055061,-0.077758,0.601788,1.168632,-0.286520
1026.000000,-0.130472,-0.227334,0.482196,1.129649,-1.526818
1027.000000,-0.510022,-0.537122,0.350112,1.084157,-1.520800
1028.000000,-0.886998,-0.679895,0.195822,1.023210,-0.922543
1029.000000,-1.152439,-0.712650,0.021312,0.967353,-0.194026
1030.000000,-0.784037,-0.513259,-0.066700,0.956608,1.099190
1031.000000,-0.417268,-0.350412,-0.222220,0.902533,-0.101877
1032.000000,-0.495961,-0.646392,-0.468155,0.799257,-1.709235
1033.000000,-0.686025,-0.977307,-0.711005,0.672386,-1.544894
1034.000000,-0.853706,-1.209246,-0.988859,0.547248,-0.777535
1035.000000,-1.346254,-1.240271,-1.141537,0.433099,-0.672050
1036.000000,-1.504924,-1.096423,-1.279246,0.303646,-0.621408
1037.000000,-1.023427,-0.861912,-1.388619,0.186226,0.135734
1038.000000,-0.619280,-0.757986,-1.340789,0.001979,-0.084540
1039.000000,-0.628213,-0.881500,-1.348467,-0.289985,-0.790932
1040.000000,-0.615907,-1.249009,-1.317360,-0.563033,-0.533015
1041.000000,-0.797584,-1.523065,-1.234248,-0.874385,-0.984777
1042.000000,-2.006151,-1.712895,-1.435589,-1.220033,-2.249548
1043.000000,-2.536965,-1.736916,-1.588764,-1.444873,-1.322346
1044.000000,-3.513864,-2.625645,-2.109540,-1.981321,-3.753351
1045.000000,-3.796412,-3.212787,-2.426153,-2.302796,-3.293847
1046.000000,-3.717558,-3.428604,-2.574387,-2.518756,-2.986006
1047.000000,-3.302349,-3.365218,-2.587055,-2.584816,-2.117170
1048.000000,-3.034006,-3.150210,-2.564516,-2.495666,-1.641376
1049.000000,-2.551542,-2.929887,-2.575086,-2.420357,-1.609344
1050.000000,-2.208147,-2.795115,-2.651969,-2.366673,-1.692174
1051.000000,-1.968779,-2.694848,-2.638488,-2.308020,-1.878825
1052.000000,-2.018749,-2.624653,-2.593503,-2.358576,-2.319806
1053.000000,-2.103818,-2.585998,-2.542028,-2.394504,-2.129730
1054.000000,-2.107497,-2.376331,-2.492658,-2.400674,-1.802144
1055.000000,-2.054946,-2.186462,-2.430800,-2.350004,-1.602907
1056.000000,-2.020731,-2.053616,-2.395229,-2.294175,-1.793611
1057.000000,-1.780125,-1.926989,-2.326290,-2.203882,-1.203260
1058.000000,-1.561298,-1.839650,-2.248483,-2.136271,-1.090347
1059.000000,-1.396554,-1.756085,-2.159140,-2.090732,-1.004207
1060.000000,-1.287468,-1.682890,-2.095044,-2.087483,-1.073804
1061.000000,-1.158955,-1.612801,-2.040424,-2.062452,-1.188882
1062.000000,-1.170272,-1.509130,-1.975859,-2.008611,-1.268839
1063.000000,-1.167410,-1.400674,-1.926651,-1.953436,-1.079904
1064.000000,-1.206240,-1.336415,-1.828313,-1.927068,-1.191576
1065.000000,-1.208538,-1.280983,-1.732669,-1.899708,-1.085643
1066.000000,-1.148856,-1.184268,-1.633565,-1.866739,-0.892616
1067.000000,-0.917667,-1.076079,-1.529554,-1.814752,-0.060080
1068.000000,-0.713942,-0.979190,-1.451416,-1.765346,0.014190
1069.000000,-0.408296,-0.865644,-1.368096,-1.701963,0.364467
1070.000000,-0.107264,-0.750410,-1.291931,-1.655678,0.319143
1071.000000,0.208754,-0.610152,-1.209052,-1.610566,0.451416
1072.000000,0.261750,-0.477479,-1.114356,-1.567741,0.045110
1073.000000,0.418322,-0.315224,-1.008215,-1.534705,0.712510
1074.000000,0.505954,-0.097129,-0.913492,-1.454010,0.750322
1075.000000,0.608124,0.146957,-0.825816,-1.374589,0.669438
1076.000000,0.622437,0.392104,-0.716999,-1.296372,0.479298
1077.000000,0.787361,0.516824,-0.642123,-1.240669,0.608999
1078.000000,0.627800,0.585929,-0.590922,-1.215517,0.006753
1079.000000,0.494838,0.606196,-0.537344,-1.189952,0.175822
1080.000000,0.291029,0.592357,-0.483452,-1.169077,-0.203716
1081.000000,-0.014900,0.452033,-0.428870,-1.150233,-0.767086
1082.000000,-0.480297,0.304226,-0.365761,-1.106318,-1.143599
1083.000000,-0.738634,0.006021,-0.307070,-1.058434,-1.036109
1084.000000,-0.956354,-0.267799,-0.194235,-1.015835,-0.751412
1085.000000,-0.934577,-0.429833,-0.023160,-0.964382,-0.150807
1086.000000,-0.793515,-0.549992,0.165217,-0.884073,-0.149612
1087.000000,-0.841056,-0.880722,0.082075,-0.883758,-1.343625
1088.000000,-0.895826,-1.071777,-0.060081,-0.894726,-1.260652
1089.000000,-0.974210,-1.250948,-0.363525,-0.913127,-1.084785
1090.000000,-1.102915,-1.308875,-0.696261,-0.910946,-0.735724
1091.000000,-1.520355,-1.484652,-1.382444,-0.952917,-1.949008
1092.000000,-1.909655,-1.770746,-2.109685,-1.059036,-2.807155
1093.000000,-1.980603,-1.846572,-2.467800,-1.142984,-1.685260
1094.000000,-2.099546,-1.962300,-2.679582,-1.228822,-1.783615
1095.000000,-2.356920,-2.194831,-2.838820,-1.398991,-2.216557
1096.000000,-2.233503,-2.268976,-2.793386,-1.555853,-1.620833
1097.000000,-1.879559,-2.162603,-2.701152,-1.852668,-1.312051
1098.000000,-1.747416,-2.068265,-2.559370,-2.120407,-1.255956
1099.000000,-1.504296,-1.931459,-2.397125,-2.316928,-0.721048
1100.000000,-1.187610,-1.841034,-2.242617,-2.409508,-0.702953
1101.000000,-1.024190,-1.682358,-2.096702,-2.451554,-0.828995
1102.000000,-0.953870,-1.470568,-1.971432,-2.407601,-0.986357
1103.000000,-0.731512,-1.298144,-1.815026,-2.314790,-0.180076
1104.000000,-0.585146,-1.111097,-1.687288,-2.220501,0.038921
1105.000000,-0.393500,-0.856439,-1.597125,-2.122879,0.276058
1106.000000,-0.147275,-0.658742,-1.522264,-2.031359,0.347641
1107.000000,0.115897,-0.512066,-1.419261,-1.978526,0.095103
1108.000000,0.121741,-0.390316,-1.348760,-1.911054,-0.259745
1109.000000,-0.205432,-0.458439,-1.356359,-1.921796,-1.561985
1110.000000,-0.730067,-0.578276,-1.400559,-1.923495,-1.892787
1111.000000,-1.191108,-0.639775,-1.357756,-1.871744,-1.363674
1112.000000,-1.554204,-0.681215,-1.257004,-1.812249,-1.316455
1113.000000,-1.785134,-0.863158,-1.226849,-1.767890,-1.274374
1114.000000,-2.191842,-1.401918,-1.316223,-1.844599,-3.058994
1115.000000,-2.794608,-2.227920,-1.493860,-2.024169,-3.764391
1116.000000,-3.126496,-2.812372,-1.701878,-2.156844,-3.051000
1117.000000,-3.140480,-3.014206,-1.873981,-2.183466,-2.341491
1118.000000,-2.972351,-2.953795,-1.968294,-2.156178,-1.633357
1119.000000,-2.563333,-2.739353,-2.049250,-2.109181,-1.224739
1120.000000,-2.295984,-2.712026,-2.244440,-2.159297,-2.284420
1121.000000,-2.180557,-2.731550,-2.414628,-2.180711,-2.403136
1122.000000,-2.094186,-2.672212,-2.478651,-2.136748,-1.991279
1123.000000,-2.133559,-2.616193,-2.549115,-2.136794,-1.957023
1124.000000,-2.235774,-2.480874,-2.592463,-2.140327,-1.990013
1125.000000,-2.200952,-2.324073,-2.627705,-2.145343,-2.165482
1126.000000,-2.046930,-2.166925,-2.586998,-2.134024,-1.724528
1127.000000,-1.897441,-2.031648,-2.496578,-2.101561,-1.358508
1128.000000,-1.715684,-1.935511,-2.387494,-2.053502,-1.110961
1129.000000,-1.460433,-1.836732,-2.238764,-1.998014,-0.722664
1130.000000,-1.137843,-1.657059,-2.099485,-1.938133,-0.548523
1131.000000,-0.892565,-1.474520,-1.994545,-1.880780,-0.516386
1132.000000,-0.692194,-1.320241,-1.899479,-1.819359,-0.386369
1133.000000,-0.518445,-1.161964,-1.814673,-1.779524,-0.278660
1134.000000,-0.485128,-1.028817,-1.718875,-1.766595,-0.578743
1135.000000,-0.500738,-0.872351,-1.598474,-1.762744,-0.639435
1136.000000,-0.530420,-0.757197,-1.500301,-1.762009,-0.675193
1137.000000,-0.588142,-0.674674,-1.427745,-1.755366,-0.646303
1138.000000,-0.647864,-0.602692,-1.378892,-1.738689,-0.480062
1139.000000,-0.604511,-0.562138,-1.342383,-1.699653,-0.297932
1140.000000,-0.487535,-0.520111,-1.250020,-1.652061,-0.007982
1141.000000,-0.267602,-0.447535,-1.132696,-1.608107,0.436328
1142.000000,-0.123649,-0.432722,-1.054204,-1.588506,-0.061780
1143.000000,0.057444,-0.414341,-0.964358,-1.569297,0.304116
1144.000000,0.226995,-0.340536,-0.863789,-1.518600,0.315870
1145.000000,0.317603,-0.240858,-0.733667,-1.434850,0.238417
1146.000000,0.224573,-0.118158,-0.624377,-1.360978,0.126152
1147.000000,0.310175,0.033811,-0.531884,-1.303871,0.193110
1148.000000,0.360847,0.217101,-0.442084,-1.267038,0.512252
1149.000000,0.394459,0.400322,-0.388446,-1.251821,0.466632
1150.000000,0.629213,0.670309,-0.318628,-1.172920,1.184240
1151.000000,0.879540,0.841495,-0.238390,-1.075772,1.106489
1152.000000,1.081431,1.145829,-0.158693,-0.991082,1.037703
1153.000000,1.074328,1.205367,-0.097466,-0.904748,0.616520
1154.000000,1.026377,1.162200,0.031048,-0.806233,0.278942
1155.000000,0.642462,0.984587,0.155520,-0.686488,-0.715607
1156.000000,0.201184,0.819286,0.312733,-0.586594,-1.128746
1157.000000,-0.428402,0.604049,0.457737,-0.514499,-1.699023
1158.000000,-1.381318,0.218994,0.465975,-0.476071,-2.481892
1159.000000,-2.573225,-0.316540,0.300141,-0.501303,-2.784067
1160.000000,-2.985844,-1.262132,-0.057893,-0.567042,-2.685763
1161.000000,-2.995856,-2.292290,-0.602597,-0.654414,-2.424129
1162.000000,-2.849089,-3.017413,-0.947712,-0.783156,-2.117892
1163.000000,-2.671443,-3.214158,-1.355985,-0.978573,-2.094816
1164.000000,-2.577911,-3.218470,-1.810506,-1.213563,-2.498610
1165.000000,-2.404447,-2.991783,-2.102734,-1.465968,-2.073253
1166.000000,-2.189258,-2.756022,-2.230979,-1.698012,-1.619550
1167.000000,-2.028984,-2.554317,-2.309889,-1.915680,-1.505130
1168.000000,-1.764449,-2.286342,-2.309696,-2.034692,-0.871414
1169.000000,-1.315504,-1.973138,-2.224430,-2.052222,-0.269073
1170.000000,-0.987472,-1.725824,-2.224413,-2.105609,-0.445731
1171.000000,-0.737194,-1.512614,-2.188291,-2.174208,-0.396565
1172.000000,-0.503273,-1.337130,-2.142650,-2.095873,-0.398848
1173.000000,-0.271341,-1.101493,-2.013238,-1.976998,0.239498
1174.000000,-0.192930,-0.832065,-1.894924,-1.883403,0.116491
1175.000000,0.012285,-0.550542,-1.720916,-1.758368,0.529163
1176.000000,0.108408,-0.363897,-1.607019,-1.688684,0.041525
1177.000000,0.352495,-0.103392,-1.448438,-1.571083,0.735475
1178.000000,0.562410,0.143269,-1.245302,-1.449268,1.217092
1179.000000,0.824829,0.335455,-1.019660,-1.320971,1.310951
1180.000000,0.914208,0.510506,-0.821035,-1.295568,0.927959
1181.000000,1.096634,0.673656,-0.630307,-1.279717,0.868664
1182.000000,1.270393,0.921392,-0.394004,-1.216164,1.547604
1183.000000,1.440313,1.149413,-0.097080,-1.094574,1.986220
1184.000000,1.672466,1.444017,0.318090,-0.923439,2.275382
1185.000000,1.884639,1.633445,0.724246,-0.724900,1.902449
1186.000000,2.048770,1.851219,1.124727,-0.508209,1.812036
1187.000000,1.966379,1.897564,1.486781,-0.293990,1.371715
1188.000000,1.740064,1.824479,1.726952,-0.039947,1.006363
1189.000000,1.450877,1.721885,1.855109,0.306339,0.880609
1190.000000,1.342648,1.721655,2.009884,0.850377,1.369141
1191.000000,1.325102,1.763412,2.132621,1.553991,1.703552
1192.000000,1.387582,1.740427,2.197785,2.207316,1.655799
1193.000000,1.537388,1.696519,2.184227,2.676515,1.725014
1194.000000,1.693955,1.626186,2.156191,2.931605,1.689758
1195.000000,1.713037,1.571057,2.080218,2.940637,1.496480
1196.000000,1.655104,1.521484,2.033918,2.841904,1.425839
1197.000000,1.663138,1.547251,1.973752,2.749974,1.701318
1198.000000,1.525868,1.546458,1.860669,2.571244,1.010319
1199.000000,1.420494,1.576028,1.772824,2.407934,1.175341
1200.000000,1.336991,1.549803,1.715773,2.284388,1.078142
1201.000000,1.263829,1.488160,1.674011,2.182109,1.057860
1202.000000,1.158520,1.447475,1.624806,2.106190,1.230145
1203.000000,1.185879,1.386823,1.563043,2.012158,1.124265
1204.000000,1.145301,1.312918,1.487869,1.934157,0.953572
1205.000000,1.099534,1.248324,1.428825,1.849757,0.815580
1206.000000,0.917455,1.128225,1.350138,1.774324,0.034235
1207.000000,0.522479,0.897843,1.271301,1.664772,-0.832782
1208.000000,0.067055,0.727438,1.210983,1.551179,-1.023171
1209.000000,-0.422982,0.505494,1.156319,1.446096,-1.145700
1210.000000,-0.992116,0.243088,1.062284,1.362969,-1.474243
1211.000000,-1.570198,-0.153051,0.905140,1.271455,-2.360476
1212.000000,-1.881498,-0.623546,0.741082,1.171647,-2.110125
1213.000000,-2.234033,-1.226509,0.508442,1.039207,-2.534613
1214.000000,-2.395211,-1.758452,0.249921,0.896828,-2.161714
1215.000000,-2.308063,-2.098427,0.007479,0.782870,-1.541296
1216.000000,-2.036376,-2.190985,-0.247006,0.673196,-1.259034
1217.000000,-1.824680,-2.139197,-0.562457,0.580327,-1.162700
1218.000000,-1.400679,-1.983167,-0.771921,0.535812,-0.483547
1219.000000,-1.091986,-1.864115,-1.051411,0.484892,-0.673920
1220.000000,-0.926036,-1.740984,-1.345063,0.383125,-0.753993
1221.000000,-0.836841,-1.566331,-1.628819,0.219248,-0.849178
1222.000000,-0.700609,-1.388518,-1.839706,0.037946,-0.544673
1223.000000,-0.819481,-1.228385,-2.027556,-0.258780,-1.073080
1224.000000,-0.952792,-1.128123,-2.141982,-0.659502,-1.318292
1225.000000,-1.111791,-1.116003,-2.201985,-1.141085,-1.500280
1226.000000,-1.462290,-1.252174,-2.253059,-1.781648,-2.381420
1227.000000,-1.881431,-1.413137,-2.242780,-2.371011,-2.439618
1228.000000,-2.156805,-1.645400,-2.225927,-2.673457,-2.378149
1229.000000,-2.242700,-1.785409,-2.167458,-2.760846,-1.902641
1230.000000,-2.291912,-1.914354,-2.116335,-2.745548,-1.935887
1231.000000,-2.126041,-1.980755,-2.021730,-2.656609,-1.622126
1232.000000,-1.955278,-2.061136,-1.952982,-2.571293,-1.595436
1233.000000,-1.730168,-2.049414,-1.848981,-2.462318,-1.259874
1234.000000,-1.605495,-2.023299,-1.772154,-2.365530,-1.276028
1235.000000,-1.522035,-2.015031,-1.750026,-2.296057,-1.536095
1236.000000,-1.475680,-1.916170,-1.736280,-2.207287,-1.392809
1237.000000,-1.397390,-1.792299,-1.721682,-2.105969,-1.221768
1238.000000,-1.230882,-1.590748,-1.698394,-1.983975,-0.408370
1239.000000,-0.974113,-1.400083,-1.653142,-1.864951,0.030155
1240.000000,-0.569727,-1.160720,-1.592454,-1.745647,0.443139
1241.000000,-0.205871,-0.962323,-1.541210,-1.630636,0.301905
1242.000000,0.068592,-0.789199,-1.526603,-1.548116,-0.022848
1243.000000,0.262806,-0.596067,-1.460757,-1.437290,0.462867
1244.000000,0.432355,-0.350472,-1.365658,-1.326913,0.801938
