0.000000,5.385165,5.385165,5.385165,5.385165,2.929600
1.000000,3.753424,3.747465,3.745585,3.744479,2.849193
2.000000,3.023538,3.010380,3.007685,3.005682,3.330000
3.000000,2.581958,2.560999,2.558095,2.556736,2.301524
4.000000,2.294798,2.262038,2.251327,2.247478,4.059226
5.000000,2.065821,2.033814,2.019202,2.013770,2.852479
6.000000,1.881512,1.853889,1.834804,1.828837,2.261054
7.000000,1.726929,1.705952,1.683936,1.676595,2.120572
8.000000,1.601867,1.583634,1.557553,1.547845,2.023149
9.000000,1.477621,1.477968,1.449559,1.437101,2.011237
10.000000,1.373349,1.381450,1.353764,1.340614,1.840910
11.000000,1.286476,1.296750,1.268902,1.254886,1.932384
12.000000,1.209218,1.219135,1.191880,1.177533,1.905292
13.000000,1.135226,1.149003,1.120810,1.105902,1.587740
14.000000,1.063341,1.074493,1.055804,1.039538,1.365583
15.000000,0.998677,1.008606,0.995582,0.978070,1.410084
16.000000,0.934171,0.947947,0.940007,0.920404,1.278222
17.000000,0.863594,0.886465,0.885325,0.864870,0.711333
18.000000,0.805385,0.830774,0.836112,0.813731,1.100012
19.000000,0.750644,0.776035,0.788386,0.765123,1.006190
20.000000,0.692589,0.721850,0.739858,0.717257,0.771802
21.000000,0.642192,0.670150,0.694189,0.671681,1.092287
22.000000,0.601171,0.618129,0.648471,0.626558,1.013171
23.000000,0.555984,0.569702,0.605841,0.582800,1.132025
24.000000,0.515372,0.524460,0.559006,0.541318,1.264649
25.000000,0.478724,0.477755,0.514482,0.500518,1.172708
26.000000,0.430970,0.429425,0.471470,0.461916,0.911783
27.000000,0.383418,0.388800,0.432067,0.427957,0.818457
28.000000,0.343825,0.355748,0.412690,0.419168,1.005274
29.000000,1.093951,1.124739,1.380642,1.786429,1.395568
30.000000,1.109379,1.178944,1.348100,1.760362,1.295320
31.000000,1.212085,1.198591,1.308373,1.735104,1.346073
32.000000,1.483218,1.279889,1.285926,1.712910,1.985390
33.000000,1.443017,1.240818,1.232234,1.671271,0.213058
34.000000,1.219823,1.165414,1.188594,1.576310,0.132086
35.000000,1.136422,1.151650,1.160711,1.519063,0.920950
36.000000,0.800597,1.102297,1.113679,1.459219,-0.210119
37.000000,0.323386,1.106735,1.126005,1.411589,0.299729
38.000000,0.672734,1.201833,1.147049,1.388807,1.753375
39.000000,1.253124,1.309242,1.200568,1.376124,2.346677
40.000000,1.443403,1.356619,1.254831,1.354090,1.503457
41.000000,1.835104,1.368349,1.276228,1.321053,1.297480
42.000000,2.134393,1.318713,1.325852,1.294450,1.733788
43.000000,2.222445,1.630705,1.396952,1.296996,2.253611
44.000000,2.162520,1.934158,1.461611,1.313676,2.180758
45.000000,2.391579,2.183458,1.578093,1.346358,2.602416
46.000000,2.548900,2.454470,1.719133,1.387069,2.362264
47.000000,2.563334,2.568668,1.859135,1.463670,2.182068
48.000000,2.445195,2.502022,1.950472,1.510868,1.950007
49.000000,2.347758,2.394069,1.992799,1.565012,1.903917
50.000000,2.196463,2.373016,2.039910,1.638404,1.935567
51.000000,2.037921,2.335576,2.051700,1.679591,1.666836
52.000000,1.936125,2.284364,2.025125,1.729997,1.726328
53.000000,1.978320,2.254883,2.123982,1.795064,2.151467
54.000000,1.920875,2.174691,2.168782,1.823882,1.691019
55.000000,1.830015,2.047594,2.156793,1.846845,1.544082
56.000000,1.738494,1.917721,2.158591,1.866093,1.280259
57.000000,1.712676,1.852986,2.160888,1.902860,1.612160
58.000000,1.604580,1.811260,2.116613,1.920850,1.609779
59.000000,1.625384,1.795714,2.070541,1.926071,1.782249
60.000000,1.596358,1.736553,2.029108,1.912069,1.423211
61.000000,1.628803,1.709518,2.001936,1.899020,1.472807
62.000000,1.504485,1.628961,1.935755,1.841243,1.031382
63.000000,1.378578,1.509638,1.859450,1.834505,0.992359
64.000000,1.137565,1.395335,1.769144,1.811272,0.568245
65.000000,0.996718,1.314843,1.678003,1.781103,0.720876
66.000000,0.836475,1.263255,1.600008,1.776921,0.718485
67.000000,0.876949,1.229538,1.560875,1.784931,1.327669
68.000000,0.955353,1.203807,1.536516,1.770032,1.451566
69.000000,1.040292,1.107832,1.489330,1.725299,0.889550
70.000000,0.831700,0.935931,1.385853,1.658993,-0.580960
71.000000,0.683608,0.780794,1.316002,1.617992,-0.225171
72.000000,0.168308,0.598369,1.212017,1.550589,-1.337225
73.000000,-0.596004,0.351988,1.064670,1.464149,-1.913649
74.000000,-1.214018,0.184121,0.959288,1.397740,-1.353398
75.000000,-1.344923,-0.000858,0.873092,1.328532,-0.879100
76.000000,-1.355085,-0.126542,0.830594,1.283947,-0.000886
77.000000,-0.961302,-0.332481,0.774653,1.253364,0.407399
78.000000,-0.500153,-0.657119,0.692264,1.217597,-0.078494
79.000000,-0.441311,-1.060879,0.534491,1.154918,-1.149566
80.000000,-0.520127,-1.204795,0.383071,1.086306,-1.170778
81.000000,-0.579975,-1.264332,0.246511,1.054195,-0.178905
82.000000,-0.972837,-1.239960,0.084344,0.991515,-1.017628
83.000000,-1.150680,-1.050713,-0.098060,0.900712,-0.789472
84.000000,-0.903692,-0.864866,-0.218103,0.844209,-0.249559
85.000000,-0.624973,-0.738219,-0.386504,0.793658,-0.133766
86.000000,-0.586973,-0.747610,-0.582191,0.760357,-0.045529
87.000000,-0.216645,-0.746137,-0.871824,0.709798,0.397558
88.000000,-0.072368,-0.766638,-1.302705,0.614342,-0.245098
89.000000,0.130938,-0.488206,-1.514939,0.510199,0.548437
90.000000,0.134711,-0.315348,-1.466890,0.381609,-0.142572
91.000000,0.252355,-0.231267,-1.370347,0.235782,0.396331
92.000000,0.400437,0.089815,-1.021256,0.160371,0.969166
93.000000,0.722857,0.365359,-0.613246,0.055231,0.822767
94.000000,1.002789,0.671714,-0.215412,0.094197,1.491768
95.000000,1.445569,0.959842,0.103212,0.109504,1.399076
96.000000,1.649048,1.219122,0.274642,0.132114,1.241680
97.000000,1.563225,1.317138,0.320441,-0.209094,0.759404
98.000000,1.577761,1.588840,0.468288,-0.727028,0.973844
99.000000,1.272995,1.581957,0.705228,-1.241121,0.280688
100.000000,1.048463,1.717767,1.011475,-0.807541,0.633909
101.000000,0.769143,1.659034,1.131333,-0.608413,0.285071
102.000000,0.980604,1.710597,1.586141,0.613855,1.752404
103.000000,0.928729,1.619319,1.798301,1.671506,0.884539
104.000000,1.131598,1.449408,1.885466,2.291780,1.085067
105.000000,1.134296,1.240226,1.864566,2.441633,0.500320
106.000000,0.874841,0.887211,1.687785,2.040909,-1.105995
107.000000,0.353260,0.754593,1.565135,1.802619,-0.077227
108.000000,0.451961,0.773610,1.653587,1.951968,1.292925
109.000000,0.582313,0.954379,1.646928,2.304910,1.581868
110.000000,0.673415,0.996564,1.652553,2.429928,0.854870
111.000000,0.763234,0.889558,1.486372,2.160151,-0.873232
112.000000,1.258711,0.857280,1.467378,2.321296,1.727727
113.000000,1.261869,0.903165,1.429363,2.326082,1.123860
114.000000,1.209458,0.941621,1.339902,2.257533,1.273615
115.000000,1.499620,1.131452,1.290411,2.207396,1.614856
116.000000,1.857131,1.350163,1.153064,2.042631,-0.139250
117.000000,0.292621,0.973849,0.895502,1.690178,-2.686085
118.000000,-1.449472,0.148852,0.582774,1.425894,-2.832000
119.000000,-2.973909,-1.033189,0.291801,1.090784,-2.684324
120.000000,-3.642079,-2.110794,-0.082128,0.857809,-2.350754
121.000000,-3.477566,-2.654983,-0.464480,0.599042,-1.993518
122.000000,-2.851677,-3.121996,-1.025703,0.351520,-1.298736
123.000000,-2.411588,-3.192276,-1.518740,0.079486,-1.445575
124.000000,-1.837032,-2.965504,-1.785983,-0.158713,-0.477270
125.000000,-1.418568,-2.833495,-1.932399,-0.425658,-0.618895
126.000000,-1.056016,-2.565105,-1.829181,-0.666688,-0.474610
127.000000,-0.631708,-2.022241,-1.683541,-0.716446,0.477517
128.000000,-0.069011,-1.495054,-1.637496,-0.745884,0.823731
129.000000,0.527329,-0.826135,-1.431710,-0.516534,1.798130
130.000000,1.207960,-0.134076,-1.102537,-0.244947,1.943575
131.000000,2.051090,0.766944,-0.357554,0.406726,2.759691
132.000000,2.518026,1.565490,0.175596,0.957636,2.641008
133.000000,2.721958,2.228372,0.771355,1.628234,2.377267
134.000000,2.616042,2.494972,1.230584,2.057952,1.924479
135.000000,2.468752,2.623888,1.575829,2.379770,1.726411
136.000000,2.245982,2.681202,2.038204,2.740896,1.838637
137.000000,2.000542,2.586437,2.477920,2.807097,1.545416
138.000000,1.800662,2.476170,2.744638,2.720809,1.470171
139.000000,1.666515,2.310822,2.849296,2.597934,1.338361
140.000000,1.460819,2.101551,2.777638,2.439946,0.795602
141.000000,1.192269,1.833069,2.652712,2.348043,0.549690
142.000000,0.936494,1.568278,2.484606,2.137409,0.308835
143.000000,0.755440,1.372127,2.393033,2.032369,0.591166
144.000000,0.580998,1.214971,2.260518,1.929410,0.508949
145.000000,0.515421,1.077935,2.157323,1.829115,0.487266
146.000000,0.667376,1.020423,2.135727,1.886080,1.249785
147.000000,0.910342,1.015569,2.095267,2.022812,1.454605
148.000000,1.014211,0.973072,2.018595,2.095021,1.108872
149.000000,1.066346,0.905184,1.895189,2.117340,0.779992
150.000000,1.124251,0.894915,1.782914,2.119590,0.748571
151.000000,1.114641,0.958300,1.674209,2.139657,1.213733
152.000000,1.019592,1.031066,1.562511,2.116863,1.023532
153.000000,1.008437,1.077264,1.467180,2.102227,1.061961
154.000000,1.089540,1.143791,1.401954,2.062882,1.114408
155.000000,1.176839,1.219885,1.346555,2.032164,1.062866
156.000000,0.975109,1.130720,1.240128,1.967929,0.010393
157.000000,0.810601,1.011593,1.156622,1.894765,0.012993
158.000000,0.585227,0.931524,1.076810,1.825034,-0.155047
159.000000,0.291146,0.908906,1.010305,1.741350,-0.097865
160.000000,-0.229083,0.840254,0.967485,1.647827,-0.813257
161.000000,-0.210716,0.736841,0.975434,1.548264,0.221864
162.000000,-0.073872,0.681978,1.020705,1.457712,0.589581
163.000000,0.221212,0.632332,1.057256,1.379693,0.912085
164.000000,-0.031917,0.236592,1.037226,1.276515,-1.011543
165.000000,-0.062210,-0.230667,1.030263,1.184456,-0.883374
166.000000,-0.199314,-0.304267,0.958963,1.094853,-0.274516
167.000000,-0.587221,-0.482345,0.813030,1.003723,-0.811757
168.000000,-1.199134,-0.729599,0.652139,0.897180,-1.345013
169.000000,-1.170326,-0.897528,0.534021,0.805024,-0.937818
170.000000,-1.214239,-0.960602,0.380131,0.744010,-1.097562
171.000000,-1.395451,-1.197952,0.096900,0.700066,-1.088034
172.000000,-1.240410,-1.322531,-0.136492,0.705278,-0.276302
173.000000,-0.862083,-1.418437,-0.388782,0.705972,0.180007
174.000000,-0.603182,-1.198579,-0.739160,0.720308,0.159910
175.000000,-0.431936,-1.118028,-1.269491,0.726887,-0.465576
176.000000,-0.279613,-1.174279,-1.561314,0.637157,-0.648286
177.000000,0.202753,-0.785978,-1.389962,0.590821,1.540208
178.000000,0.206101,-0.501287,-1.331250,0.515607,0.215479
179.000000,0.515654,-0.101848,-1.060675,0.554746,1.335192
180.000000,0.938429,0.306275,-0.685662,0.606564,1.097778
181.000000,1.448458,0.741948,-0.479135,0.581589,1.322409
182.000000,1.439923,1.039008,-0.302333,0.639439,1.535855
183.000000,1.736408,1.244525,-0.192050,0.719013,1.520461
184.000000,1.708489,1.420215,0.269835,0.751556,1.298205
185.000000,1.862179,1.777603,0.795222,0.931523,1.736870
186.000000,1.582103,1.881217,0.899046,1.227682,0.291927
187.000000,1.421354,1.751442,1.228640,1.695416,0.976078
188.000000,1.571188,1.978818,1.842503,2.504300,2.154294
189.000000,1.468002,1.852885,2.053519,2.592524,0.962324
190.000000,1.098533,1.655309,2.105945,2.578487,0.168027
191.000000,1.181491,1.527572,2.198987,2.445891,0.697010
192.000000,1.148857,1.408123,2.177582,2.298918,0.848619
193.000000,0.783013,1.271804,2.086179,2.072974,0.627016
194.000000,0.582841,1.109847,1.956928,2.145554,0.130996
195.000000,0.917354,1.101810,2.055867,2.420170,1.629751
196.000000,1.250554,1.329026,2.181805,2.581385,2.087969
197.000000,1.627608,1.518105,2.145507,2.778099,2.367348
198.000000,1.819699,1.429842,2.110155,2.816273,1.480548
199.000000,2.155891,1.534416,2.039478,2.818819,1.838898
200.000000,2.394763,1.851981,2.081970,2.899030,2.759906
201.000000,2.559855,2.109402,2.126087,2.922641,2.812974
202.000000,2.632760,2.327252,2.161298,2.852010,2.700041
203.000000,2.848837,2.562536,2.221967,2.781788,2.772988
204.000000,2.738942,2.635109,2.206144,2.640907,1.876311
205.000000,2.514812,2.575413,2.181767,2.549814,1.858755
206.000000,2.376809,2.534988,2.248390,2.506274,2.146138
207.000000,2.199388,2.435517,2.248875,2.388315,1.869451
208.000000,1.958346,2.381121,2.181329,2.316903,1.628126
209.000000,1.813504,2.263777,2.137427,2.203467,1.249218
210.000000,1.734854,2.129784,2.145239,2.134675,1.501162
211.000000,1.550951,1.972204,2.112054,2.059108,1.245059
212.000000,1.426733,1.830979,2.081049,1.994245,1.265719
213.000000,1.300133,1.652654,2.045285,1.927221,1.017482
214.000000,1.304408,1.588570,2.043716,1.892827,1.273648
215.000000,1.132084,1.462285,1.957011,1.822525,0.661578
216.000000,1.100466,1.358066,1.896147,1.814464,1.091486
217.000000,1.104408,1.299752,1.843059,1.804123,1.289724
218.000000,1.106157,1.236816,1.806031,1.755933,1.024544
219.000000,1.121088,1.247055,1.781137,1.754684,1.352942
220.000000,1.232723,1.213143,1.717210,1.761831,1.193234
221.000000,1.244254,1.201350,1.648193,1.757049,1.148368
222.000000,1.184436,1.172823,1.572440,1.745935,0.993883
223.000000,1.130702,1.145325,1.473329,1.732855,0.681210
224.000000,0.927629,1.056107,1.400341,1.719381,0.231318
225.000000,0.768726,1.053013,1.335709,1.685606,0.361872
226.000000,0.606982,1.002246,1.256461,1.647826,0.407230
227.000000,0.459453,0.922007,1.189979,1.605288,0.396398
228.000000,0.404059,0.886105,1.140267,1.590227,0.524317
229.000000,0.632696,0.848831,1.135544,1.583939,1.505778
230.000000,0.868298,0.829073,1.111150,1.550599,1.434187
231.000000,1.169230,0.819252,1.104707,1.510914,1.464377
232.000000,1.223201,0.730639,1.062341,1.446073,-0.133807
233.000000,0.942544,0.615975,1.018154,1.356850,-0.934318
234.000000,0.424331,0.623780,0.962053,1.308018,-0.450325
235.000000,0.231547,0.735695,0.992872,1.275353,0.845368
236.000000,-0.057025,0.827216,0.976225,1.220122,0.589130
237.000000,-0.052978,0.834015,0.914421,1.163059,-0.125525
238.000000,-0.500818,0.392107,0.802075,1.078965,-2.290479
239.000000,-0.997479,-0.291052,0.640777,1.020632,-1.848069
240.000000,-1.616212,-0.891936,0.494206,0.953576,-1.175448
241.000000,-1.700162,-1.224795,0.387268,0.924939,0.134109
242.000000,-1.537174,-1.158325,0.291175,0.895989,0.310583
243.000000,-0.368035,-0.646852,0.316542,0.911535,1.435186
244.000000,0.510829,-0.355378,0.394475,0.891395,0.800947
245.000000,1.519241,-0.066712,0.583164,0.958484,1.825879
246.000000,2.233451,0.597729,0.945146,1.019771,2.412026
247.000000,2.839312,1.782461,1.573318,1.099174,2.802271
248.000000,3.016057,3.247524,2.332555,1.250506,2.808991
249.000000,3.081037,3.619874,2.688098,1.370344,2.387902
250.000000,3.085831,3.658808,2.995039,1.580826,2.775780
251.000000,2.977317,3.458704,3.093948,1.818011,2.595718
252.000000,2.664508,3.169523,3.062935,1.992610,1.814889
253.000000,2.334309,2.858472,2.991569,2.140284,1.462888
254.000000,2.042985,2.631068,2.824442,2.247513,1.104858
255.000000,1.739637,2.433254,2.652512,2.313764,1.258386
256.000000,1.656020,2.357396,2.646482,2.433952,2.094591
257.000000,1.615429,2.203970,2.594488,2.453243,1.614917
258.000000,1.658143,2.072235,2.623195,2.440795,1.670525
259.000000,1.611787,1.901365,2.532638,2.308276,0.986530
260.000000,1.671588,1.783764,2.490723,2.259047,1.590662
261.000000,1.512983,1.647616,2.387005,2.188946,1.330026
262.000000,1.431890,1.578203,2.290745,2.161885,1.240549
263.000000,1.232213,1.485738,2.144415,2.113758,0.718250
264.000000,1.155792,1.422978,2.036281,2.051326,0.622775
265.000000,0.925487,1.334905,1.912767,1.960210,0.463330
266.000000,0.648060,1.119163,1.761921,1.858628,-0.024903
267.000000,0.127223,0.827397,1.540932,1.712239,-1.250647
268.000000,-0.457322,0.446902,1.290180,1.589807,-1.996916
269.000000,-1.013968,0.145573,1.078183,1.488399,-1.841799
270.000000,-1.590336,-0.281864,0.830628,1.376313,-2.016302
271.000000,-1.909776,-0.650009,0.613070,1.283986,-1.431993
272.000000,-1.995133,-1.069481,0.404956,1.179574,-1.656064
273.000000,-2.175487,-1.604504,0.083691,0.950748,-2.735886
274.000000,-2.219221,-2.007140,-0.202952,0.772081,-2.119165
275.000000,-2.158614,-2.281435,-0.517187,0.570178,-1.858193
276.000000,-2.143816,-2.388187,-0.915255,0.343555,-1.623040
277.000000,-1.975831,-2.256892,-1.228850,0.124915,-1.082263
278.000000,-1.624707,-2.064412,-1.538989,-0.142182,-1.050371
279.000000,-1.350684,-1.883975,-1.730701,-0.406681,-0.806198
280.000000,-1.111298,-1.701269,-1.921764,-0.742966,-0.704654
281.000000,-0.864434,-1.559990,-2.008115,-1.081203,-0.439148
282.000000,-0.689740,-1.397165,-2.027949,-1.343638,-0.241096
283.000000,-0.493327,-1.123696,-1.973638,-1.548338,-0.113245
284.000000,-0.385567,-0.932486,-1.927113,-1.722429,-0.303001
285.000000,-0.258780,-0.744402,-1.854776,-1.843136,-0.114398
286.000000,-0.199792,-0.583424,-1.764818,-2.003837,-0.165184
287.000000,-0.201080,-0.490973,-1.627140,-2.074481,-0.253273
288.000000,-0.196150,-0.381100,-1.460554,-2.094023,-0.076514
289.000000,-0.102013,-0.273927,-1.312024,-2.018573,0.155478
290.000000,0.030608,-0.136333,-1.148823,-1.968321,0.569968
291.000000,0.280361,0.018745,-1.005998,-1.873424,1.072968
292.000000,0.487426,0.111536,-0.887371,-1.826787,0.641430
293.000000,0.743268,0.229225,-0.670870,-1.734364,1.029447
294.000000,1.017250,0.411302,-0.472855,-1.647207,1.261026
295.000000,1.195845,0.586567,-0.279427,-1.574918,1.217916
296.000000,1.255998,0.803771,-0.078375,-1.488055,1.246045
297.000000,1.368274,1.045992,0.090438,-1.345811,1.049869
298.000000,1.241078,1.201631,0.257266,-1.194041,0.586146
299.000000,1.042419,1.295361,0.421236,-1.066379,0.531352
300.000000,0.705173,1.187746,0.540953,-0.971711,-0.244998
301.000000,0.443298,1.020010,0.663966,-0.905317,0.054160
302.000000,0.298889,0.966268,0.805761,-0.799128,0.406904
303.000000,0.334281,0.895581,0.961430,-0.529193,0.824615
304.000000,0.250288,0.733053,1.090816,-0.313249,0.161385
305.000000,0.297791,0.567304,1.145571,-0.096990,-0.161410
306.000000,0.287416,0.409189,1.179627,0.138226,-0.168049
307.000000,0.014920,0.196780,1.155461,0.283014,-1.077654
308.000000,-0.484876,0.023544,1.083140,0.446253,-1.248417
309.000000,-1.076023,-0.248634,0.922883,0.531107,-2.150773
310.000000,-1.582806,-0.413211,0.722251,0.612531,-1.899852
311.000000,-1.813692,-0.580759,0.517073,0.695373,-0.971943
312.000000,-1.109768,-0.532050,0.543463,0.943351,1.726304
313.000000,0.019465,-0.333518,0.611745,1.275648,2.642515
314.000000,1.379689,0.098604,0.669668,1.638220,2.387824
315.000000,2.260511,0.549049,0.704908,1.838099,1.692485
316.000000,2.489785,0.842086,0.687654,1.900735,0.922784
317.000000,2.026006,1.124083,0.628634,1.871802,0.206343
318.000000,1.530374,1.508994,0.680754,1.837295,0.639706
319.000000,1.179469,2.059038,0.810260,1.798262,1.010504
320.000000,0.841407,2.294039,1.035682,1.663451,0.420288
321.000000,0.435104,2.131621,1.099712,1.409799,-0.616390
322.000000,0.356653,1.746813,1.241557,1.300502,-0.092045
323.000000,0.406470,1.410809,1.501724,1.240689,0.819769
324.000000,0.460298,1.178852,2.063981,1.206832,1.189004
325.000000,0.709345,1.096396,2.592353,1.214082,1.308127
326.000000,1.330871,1.241421,2.906345,1.279766,1.709368
327.000000,1.860153,1.573483,3.165808,1.415375,2.022346
328.000000,1.969052,1.702363,3.125925,1.553577,1.507285
329.000000,1.985260,1.761349,3.108697,1.700763,1.521278
330.000000,1.906634,1.830777,2.987004,1.901183,1.246185
331.000000,1.704953,1.962367,2.787723,2.030950,0.973178
332.000000,1.480108,2.015072,2.494655,2.123176,1.086753
333.000000,1.412603,1.980377,2.226721,2.145822,1.252995
334.000000,1.284053,1.880837,1.996858,2.172790,0.994338
335.000000,1.115942,1.728272,1.810292,2.147619,0.527504
336.000000,1.014833,1.556403,1.709511,2.107451,0.530583
337.000000,0.812330,1.317494,1.641374,2.081264,0.161978
338.000000,0.577494,1.159141,1.558817,2.061715,0.202744
339.000000,0.425447,1.022308,1.476169,2.096188,0.353640
340.000000,0.348705,0.905424,1.435918,2.103646,0.156177
341.000000,0.485120,0.936407,1.536946,2.125784,1.326741
342.000000,0.625222,0.878318,1.558931,1.996687,0.554742
343.000000,0.682578,0.744951,1.506230,1.817249,0.267447
344.000000,0.379994,0.507068,1.379456,1.608330,-0.832129
345.000000,0.190998,0.360776,1.263992,1.461678,-0.572185
346.000000,-0.121331,0.281971,1.157511,1.398191,0.104331
347.000000,-0.538554,0.105932,0.958721,1.329211,-1.132459
348.000000,-0.804864,-0.061432,0.811356,1.253292,-0.835109
349.000000,-0.832693,-0.295723,0.640495,1.153878,-0.957893
350.000000,-0.914269,-0.474228,0.488114,1.099418,-0.881064
351.000000,-1.227054,-0.869377,0.344774,1.111930,-1.146179
352.000000,-1.252054,-1.144727,0.164339,1.099408,-1.280075
353.000000,-1.202843,-1.288614,-0.032932,1.064116,-0.541568
354.000000,-1.024420,-1.210014,-0.211255,1.024930,-0.133663
355.000000,-0.877872,-1.208864,-0.368120,0.972837,-0.301540
356.000000,-0.759903,-1.388165,-0.622987,0.862069,-0.783816
357.000000,-0.627178,-1.291712,-0.850201,0.695325,-0.831110
358.000000,-0.510060,-1.132327,-1.026148,0.588233,-0.058315
359.000000,-0.217155,-0.782739,-1.046369,0.515476,1.196840
360.000000,0.200911,-0.419908,-0.926742,0.476138,1.434356
361.000000,0.736140,-0.066539,-1.019391,0.454783,1.187777
362.000000,1.013799,0.147766,-1.092616,0.322297,0.121709
363.000000,0.845012,0.118202,-1.220883,0.021497,-0.896002
364.000000,0.511712,0.127125,-1.069534,-0.248900,-0.147685
365.000000,-0.402920,-0.083263,-1.148609,-0.664754,-1.774188
366.000000,-0.857411,0.026312,-1.163288,-1.029431,-0.211869
367.000000,-1.133010,0.053853,-1.041245,-1.439777,-0.763782
368.000000,-0.696631,0.176038,-0.835715,-1.661098,0.570190
369.000000,-0.513634,0.032239,-0.629139,-1.793234,0.466413
370.000000,0.005374,-0.283429,-0.497039,-1.794265,-0.049488
371.000000,-0.177696,-0.746593,-0.436875,-2.169497,-0.885591
372.000000,0.094654,-0.802370,-0.275417,-2.139571,0.121509
373.000000,-0.108418,-0.646180,-0.226794,-2.064728,-0.043426
374.000000,0.233499,-0.268317,-0.023981,-1.566933,1.634415
375.000000,0.754756,0.551143,0.261040,-1.194439,1.507064
376.000000,1.821949,1.246965,0.979581,-0.851854,2.389839
377.000000,1.884262,1.575470,1.487045,-0.510723,0.650370
378.000000,2.102294,1.639223,1.934629,-0.170996,1.090667
379.000000,1.574938,1.428752,1.672002,0.016045,-0.180703
380.000000,1.003963,1.263727,1.152429,0.122985,-0.624053
381.000000,0.162233,1.328500,0.688124,0.286721,-0.478241
382.000000,-0.241614,1.191344,0.479975,0.446112,-0.662171
383.000000,-0.768776,1.157707,0.618931,0.509990,-0.438963
384.000000,-0.713898,0.852236,0.664188,0.579206,0.031951
385.000000,-0.283174,0.693960,1.321236,0.816570,0.688281
386.000000,-0.280055,-0.072570,1.242548,0.965790,-0.471166
387.000000,-1.234719,-1.295236,0.555199,0.491673,-3.032870
388.000000,-1.398047,-1.950874,0.122937,0.303315,-0.888901
389.000000,-2.040676,-2.404403,-0.672205,-0.490451,-1.998614
390.000000,-3.268290,-3.156055,-2.133548,-2.037375,-3.752124
391.000000,-3.540728,-3.399485,-2.896729,-3.035664,-3.085059
392.000000,-3.214349,-3.345261,-3.267263,-3.275927,-2.509396
393.000000,-3.226204,-3.274147,-3.363350,-3.224659,-2.434821
394.000000,-3.124139,-3.246307,-3.462721,-3.231725,-2.553008
395.000000,-2.796219,-3.195031,-3.400999,-3.081258,-2.419794
396.000000,-2.627391,-3.087416,-3.348592,-3.054048,-2.425618
397.000000,-2.624051,-2.935867,-3.231324,-3.027436,-2.625040
398.000000,-2.548231,-2.865702,-3.096703,-2.982558,-2.281316
399.000000,-2.387519,-2.718161,-2.910775,-2.875085,-1.930511
400.000000,-2.270838,-2.519046,-2.766721,-2.770953,-1.926685
401.000000,-2.079465,-2.331211,-2.618164,-2.619272,-1.529844
402.000000,-1.836711,-2.186876,-2.488496,-2.506188,-1.391876
403.000000,-1.574579,-2.017738,-2.351384,-2.369814,-0.971451
404.000000,-1.389473,-1.863128,-2.252925,-2.290978,-0.993744
405.000000,-1.174805,-1.714891,-2.170904,-2.211245,-0.848233
406.000000,-0.959938,-1.532852,-2.059789,-2.131011,-0.448491
407.000000,-0.757589,-1.328299,-1.925658,-2.035566,-0.387088
408.000000,-0.616129,-1.138836,-1.841846,-1.957426,-0.258500
409.000000,-0.417720,-0.956943,-1.739498,-1.863525,-0.018930
410.000000,-0.188080,-0.741240,-1.590090,-1.766685,0.262478
411.000000,-0.071824,-0.575454,-1.470740,-1.697943,0.106892
412.000000,0.065614,-0.401931,-1.364456,-1.632910,0.262200
413.000000,0.155295,-0.282485,-1.270853,-1.588119,0.140914
414.000000,0.219788,-0.139929,-1.166297,-1.552523,0.278846
415.000000,0.269776,0.016300,-1.055287,-1.524551,0.551440
416.000000,0.387843,0.138895,-0.933399,-1.489454,0.698448
417.000000,0.492216,0.270821,-0.781149,-1.425054,0.764779
418.000000,0.686714,0.415895,-0.624615,-1.395065,1.016962
419.000000,0.953261,0.581280,-0.456793,-1.342880,1.464991
420.000000,1.084789,0.689866,-0.275503,-1.259116,1.086037
421.000000,1.268961,0.887980,-0.075020,-1.162678,1.531948
422.000000,1.497931,1.116964,0.170581,-1.061240,1.809289
423.000000,1.544921,1.313681,0.389128,-0.970381,1.315152
424.000000,1.346545,1.374886,0.605352,-0.889441,0.591547
425.000000,1.167192,1.329699,0.818551,-0.811884,0.284450
426.000000,0.942655,1.272404,1.011037,-0.700867,0.450824
427.000000,0.458976,1.085954,1.113578,-0.585011,-0.540389
428.000000,0.069667,0.889704,1.175749,-0.455517,-0.570502
429.000000,-0.218001,0.641138,1.156898,-0.333189,-0.812023
430.000000,-0.688208,0.320636,0.967807,-0.237517,-2.006202
431.000000,-1.234423,-0.055306,0.795166,-0.159971,-1.904857
432.000000,-1.654161,-0.551155,0.550380,-0.113366,-2.279900
433.000000,-2.010887,-1.013146,0.329733,-0.131549,-2.071589
434.000000,-2.285441,-1.423707,0.070592,-0.173055,-2.142557
435.000000,-2.238292,-1.778571,-0.210257,-0.254432,-1.937186
436.000000,-2.191219,-2.114340,-0.512504,-0.496681,-1.882668
437.000000,-1.969339,-2.175132,-0.766714,-0.723752,-1.361157
438.000000,-1.730357,-2.145326,-1.004553,-0.957137,-1.018355
439.000000,-1.634285,-2.156025,-1.365526,-1.472174,-1.657750
440.000000,-1.746466,-2.146782,-1.764989,-2.276396,-2.348172
441.000000,-1.795487,-2.113034,-2.109455,-2.750559,-2.051876
442.000000,-1.796669,-1.981627,-2.315848,-2.891148,-1.456322
443.000000,-1.818604,-1.864403,-2.391101,-2.846895,-1.288449
444.000000,-1.852743,-1.827968,-2.427621,-2.873646,-1.840089
445.000000,-1.624302,-1.736617,-2.351686,-2.773730,-1.217468
446.000000,-1.578777,-1.727585,-2.337021,-2.758857,-1.785687
447.000000,-1.718730,-1.803060,-2.293338,-2.760013,-2.093179
448.000000,-1.957187,-1.942556,-2.285696,-2.778932,-2.396722
449.000000,-2.008883,-1.981209,-2.244033,-2.744727,-2.079368
450.000000,-2.098800,-1.926407,-2.155488,-2.655037,-1.806647
451.000000,-1.984907,-1.838836,-2.053186,-2.547706,-1.305072
452.000000,-1.738441,-1.756720,-1.928260,-2.431675,-0.811624
453.000000,-1.314927,-1.638147,-1.791935,-2.281032,-0.152279
454.000000,-0.817886,-1.427980,-1.640607,-2.106170,0.488976
455.000000,-0.387083,-1.313757,-1.532238,-1.975103,0.218370
456.000000,0.101383,-1.089106,-1.403141,-1.844873,0.923239
457.000000,0.528258,-0.806883,-1.299528,-1.707882,1.033089
458.000000,0.640255,-0.526846,-1.259822,-1.631441,0.215835
459.000000,0.713078,-0.184590,-1.171245,-1.542083,0.779647
460.000000,0.829650,0.163490,-1.052825,-1.444884,0.661178
461.000000,0.863453,0.523297,-0.920640,-1.346688,1.069213
462.000000,0.934787,0.862353,-0.798022,-1.236264,1.338010
463.000000,1.123185,1.059933,-0.696018,-1.148710,1.016315
464.000000,1.241201,1.192638,-0.524812,-1.047040,1.297529
465.000000,1.524066,1.450696,-0.328750,-0.917949,1.890554
466.000000,1.686756,1.582082,-0.051036,-0.782566,1.815553
467.000000,1.853712,1.736308,0.352626,-0.633947,2.087700
468.000000,2.090970,1.991917,0.910534,-0.466957,2.202966
469.000000,2.164609,2.087589,1.476831,-0.262347,1.884449
470.000000,2.077957,2.134253,1.978325,0.011160,1.687712
471.000000,1.967146,2.096868,2.291001,0.305805,1.479390
472.000000,1.793102,2.021006,2.414894,0.599909,1.335025
473.000000,1.638013,1.998361,2.419083,0.954272,1.454818
474.000000,1.491795,1.922994,2.315200,1.367261,1.196288
475.000000,1.360355,1.797577,2.224243,1.719836,1.068338
476.000000,1.252989,1.681552,2.093063,2.068343,0.974062
477.000000,1.187416,1.559390,1.982096,2.347595,1.030084
478.000000,1.103516,1.436094,1.929710,2.521666,1.071763
479.000000,1.059013,1.338360,1.855412,2.549560,1.012743
480.000000,1.041955,1.257703,1.796582,2.503464,1.000538
481.000000,1.042974,1.194188,1.729327,2.406008,0.957294
482.000000,1.015185,1.139020,1.657102,2.285394,0.847528
483.000000,0.987065,1.076207,1.612368,2.159469,0.931014
484.000000,1.065487,1.083077,1.584164,2.053188,1.437466
485.000000,1.155464,1.112596,1.534956,1.981196,1.439780
486.000000,1.207658,1.138771,1.482532,1.889939,1.182625
487.000000,1.226380,1.133911,1.409053,1.803274,0.901560
488.000000,1.264047,1.140043,1.338260,1.766689,1.098177
489.000000,1.082123,1.103494,1.264030,1.703846,0.489582
490.000000,0.922066,1.082868,1.206427,1.659915,0.656166
491.000000,0.659815,1.000367,1.136074,1.592957,-0.259810
492.000000,0.301988,0.873114,1.055961,1.513010,-1.078332
493.000000,-0.212192,0.720635,0.963962,1.452979,-1.399003
494.000000,-0.388090,0.586438,0.928598,1.417106,0.139274
495.000000,-0.328422,0.546957,0.945159,1.387611,1.894350
496.000000,0.280511,0.599131,0.992541,1.370378,2.389783
497.000000,1.441223,0.725615,1.038823,1.339347,2.081108
498.000000,2.651995,0.891301,1.097035,1.306057,2.226445
499.000000,2.943012,1.280206,1.170062,1.286609,2.099314
500.000000,2.795545,1.729791,1.259906,1.279311,2.139101
501.000000,2.657825,2.445250,1.379600,1.292083,2.311125
502.000000,2.496554,3.005542,1.493657,1.306995,1.866084
503.000000,2.095637,3.035961,1.525665,1.284164,0.753547
504.000000,1.733736,2.772414,1.491834,1.274436,0.550429
505.000000,1.001416,2.177110,1.329444,1.224884,-1.169959
506.000000,0.061946,1.560292,1.143180,1.164383,-1.672698
507.000000,-0.736801,1.073154,1.002222,1.106589,-1.319320
508.000000,-0.894919,0.820119,0.960937,1.098458,0.118029
509.000000,-1.126406,0.463829,0.937415,1.071718,-0.399865
510.000000,-0.959550,0.043746,0.873414,1.039263,-0.482664
511.000000,-0.701851,-0.495617,0.890969,0.999377,-0.640133
512.000000,-0.640607,-1.073187,0.936265,0.940719,-1.070797
513.000000,-1.095643,-1.543096,0.888562,0.829565,-1.608351
514.000000,-1.242757,-1.795673,0.737222,0.688760,-1.019438
515.000000,-1.383676,-1.739577,0.363568,0.507359,-1.134881
516.000000,-1.436315,-1.571464,-0.075445,0.329943,-0.978269
517.000000,-1.320234,-1.421058,-0.463204,0.179720,-0.677129
518.000000,-1.235157,-1.610967,-1.031629,-0.100871,-1.267118
519.000000,-1.267960,-1.684260,-1.568340,-0.344771,-1.192296
520.000000,-1.389596,-1.810889,-2.134478,-0.726627,-1.647263
521.000000,-1.624460,-1.953118,-2.631032,-1.110920,-1.974098
522.000000,-1.743334,-1.921492,-2.786751,-1.327892,-1.376201
523.000000,-1.713986,-1.814830,-2.738767,-1.515496,-1.277013
524.000000,-1.632936,-1.746729,-2.619039,-1.768971,-0.974569
525.000000,-1.458921,-1.670105,-2.380071,-2.085449,-0.950068
526.000000,-1.231195,-1.626581,-2.162029,-2.330168,-1.023995
527.000000,-1.056628,-1.567352,-1.973771,-2.391027,-0.632001
528.000000,-0.843351,-1.412405,-1.886451,-2.375191,-0.275515
529.000000,-0.773699,-1.321272,-1.810521,-2.379806,-0.640541
530.000000,-0.687861,-1.175012,-1.734932,-2.362837,-0.539457
531.000000,-0.575819,-0.991309,-1.663595,-2.356307,-0.533703
532.000000,-0.488992,-0.855656,-1.561200,-2.299811,-0.142782
533.000000,-0.399057,-0.696846,-1.415276,-2.164286,0.440434
534.000000,-0.009001,-0.511634,-1.286489,-2.018061,1.359905
535.000000,0.615661,-0.247664,-1.128478,-1.781908,1.881914
536.000000,1.291471,0.078185,-0.985382,-1.552959,1.727155
537.000000,1.813592,0.419785,-0.850754,-1.355521,1.882445
538.000000,2.114459,0.764096,-0.666851,-1.259720,1.956566
539.000000,2.160420,1.232289,-0.481582,-1.142146,1.880682
540.000000,2.001537,1.627702,-0.267364,-1.050388,1.416698
541.000000,1.962091,1.995123,0.030700,-0.934274,1.690861
542.000000,1.801991,2.129902,0.276485,-0.812393,1.271797
543.000000,1.720079,2.183910,0.586982,-0.610527,1.660086
544.000000,1.532654,2.056230,0.862244,-0.476491,1.095162
545.000000,1.392396,1.864919,1.143464,-0.336770,0.830382
546.000000,1.104592,1.653530,1.400849,-0.235786,0.340780
547.000000,0.783070,1.376414,1.538189,-0.206467,-0.252881
548.000000,0.360741,1.105015,1.586271,-0.112754,-0.337546
549.000000,-0.021140,0.809833,1.612063,-0.046178,-0.680985
550.000000,-0.420614,0.531545,1.546664,0.066543,-1.020919
551.000000,-0.693690,0.235245,1.462395,0.282684,-0.956160
552.000000,-0.928262,-0.068610,1.297697,0.387908,-1.362346
553.000000,-1.034804,-0.367732,1.157061,0.581174,-0.799906
554.000000,-1.102190,-0.626260,0.956998,0.730123,-0.963642
555.000000,-1.032578,-0.824348,0.750468,0.938086,-0.684253
556.000000,-1.042322,-0.998343,0.526721,1.112725,-0.990536
557.000000,-1.032128,-1.140580,0.247311,1.095582,-1.322266
558.000000,-1.102255,-1.247243,-0.030063,0.979753,-1.127403
559.000000,-1.112824,-1.295414,-0.309800,0.948752,-1.022063
560.000000,-1.269200,-1.346003,-0.609353,0.792871,-1.420175
561.000000,-1.346270,-1.396054,-0.961759,0.633164,-1.370243
562.000000,-1.306077,-1.363740,-1.267551,0.437107,-1.155138
563.000000,-1.206492,-1.337611,-1.564042,0.233230,-0.699774
564.000000,-1.148553,-1.299750,-1.783937,-0.170013,-0.794668
565.000000,-0.977706,-1.269732,-1.913285,-0.732761,-0.639302
566.000000,-0.891758,-1.246447,-1.984671,-1.437670,-0.981458
567.000000,-0.801509,-1.158433,-1.941932,-2.068196,-0.738126
568.000000,-0.843407,-1.112155,-1.891171,-2.595788,-0.913020
569.000000,-0.805334,-1.048068,-1.777167,-2.820945,-0.589078
570.000000,-0.808869,-0.949483,-1.647363,-2.834326,-0.622270
571.000000,-0.696435,-0.842203,-1.528290,-2.791113,-0.411083
572.000000,-0.638816,-0.763565,-1.396094,-2.668955,-0.422214
573.000000,-0.552606,-0.752663,-1.328288,-2.604446,-0.554308
574.000000,-0.612909,-0.761747,-1.274791,-2.501699,-1.034954
575.000000,-0.681298,-0.795935,-1.247804,-2.387059,-1.132277
576.000000,-0.919857,-0.806478,-1.217758,-2.261111,-1.706873
577.000000,-1.294571,-0.868804,-1.169623,-2.111006,-1.755094
578.000000,-1.811329,-0.929986,-1.142982,-1.989594,-1.973208
579.000000,-2.105701,-1.049084,-1.119030,-1.855126,-1.361237
580.000000,-2.160093,-1.183039,-1.062256,-1.718741,-1.098706
581.000000,-1.692167,-1.312518,-0.988024,-1.597038,0.040715
582.000000,-1.581626,-1.610187,-0.970244,-1.494842,-1.482341
583.000000,-1.418452,-1.869434,-1.003248,-1.444195,-1.425025
584.000000,-1.562363,-2.042341,-1.052457,-1.402786,-1.946821
585.000000,-2.060133,-2.319103,-1.173676,-1.411283,-2.949886
586.000000,-1.377415,-1.684286,-1.066955,-1.300214,2.329202
587.000000,-0.399727,-1.094213,-0.988668,-1.182120,1.903758
588.000000,-0.162597,-0.902294,-0.994677,-1.135117,-0.388847
589.000000,0.380299,-0.741669,-1.041813,-1.094919,-0.115317
590.000000,1.206896,-0.659429,-1.107333,-1.034867,-0.362538
591.000000,0.396103,-0.673220,-1.181121,-0.970108,0.015595
592.000000,-0.395676,-0.485391,-1.272756,-0.929795,-0.220617
593.000000,0.080412,-0.053145,-1.219898,-0.900463,0.918441
594.000000,1.153744,0.950559,-0.839879,-0.799167,2.587516
595.000000,2.702788,2.428639,-0.127808,-0.628426,3.464472
596.000000,3.354399,2.607357,0.715023,-0.388154,2.831540
597.000000,3.632946,2.826586,1.701875,-0.078532,2.876175
598.000000,3.542101,3.170621,2.566619,0.383769,2.811720
599.000000,3.112758,3.102964,2.865107,0.809739,1.927185
600.000000,2.569668,2.927029,2.859608,1.235160,1.295575
601.000000,2.121317,2.698267,2.680881,1.582687,0.844208
602.000000,1.588703,2.468772,2.530490,1.815226,0.317728
603.000000,1.153987,2.298336,2.461256,2.047176,0.762703
604.000000,0.888601,2.068176,2.408018,2.195808,0.723610
605.000000,0.602139,1.705013,2.316087,2.134184,0.016267
606.000000,0.437971,1.419918,2.047959,2.085394,0.108265
607.000000,0.396203,1.122997,1.851070,2.033084,0.121773
608.000000,0.283514,0.822444,1.797612,2.006597,0.267460
609.000000,0.119607,0.584900,1.719675,1.931661,0.011922
610.000000,0.193622,0.462573,1.691143,1.894791,0.339284
611.000000,0.120019,0.327447,1.605246,1.771772,-0.228201
612.000000,0.125892,0.308292,1.571213,1.752567,0.146320
613.000000,0.107283,0.232078,1.512073,1.741034,0.196589
614.000000,0.271951,0.223347,1.439394,1.794537,0.741789
615.000000,0.294898,0.284156,1.293482,1.860976,0.460754
616.000000,0.382424,0.286428,1.135671,1.728241,0.054273
617.000000,0.542545,0.381030,1.002117,1.671534,0.814004
618.000000,0.656172,0.436358,0.830986,1.692094,0.647779
619.000000,0.749672,0.611020,0.759485,1.738610,1.185336
620.000000,0.909097,0.740313,0.741866,1.787865,1.156032
621.000000,1.230395,1.027665,0.790126,1.833993,1.379881
622.000000,1.278647,1.208985,0.872587,1.861101,0.876809
623.000000,1.120437,1.246390,0.836122,1.808655,-0.324676
624.000000,0.707923,1.114314,0.783463,1.696998,-0.599787
625.000000,0.335343,1.046548,0.864099,1.548346,-0.235757
626.000000,-0.406322,0.851894,0.829250,1.353806,-1.360449
627.000000,-0.936229,0.457109,0.787155,1.130628,-1.245375
628.000000,-1.111906,0.114486,0.705063,0.876497,-1.108448
629.000000,-1.263190,-0.362657,0.644177,0.670603,-1.168389
630.000000,-1.483894,-0.786821,0.479169,0.515893,-1.000628
631.000000,-1.178008,-1.096542,0.624229,0.444284,-0.074236
632.000000,-1.254068,-1.531146,0.304219,0.335126,-1.677652
633.000000,-1.360698,-1.726459,-0.186432,0.159063,-1.594660
634.000000,-1.315941,-1.784055,-0.934219,0.002482,-1.035642
635.000000,-1.069799,-1.711433,-1.218575,-0.001368,-0.024253
636.000000,-1.177308,-1.526468,-1.541920,-0.064737,-0.609704
637.000000,-0.925738,-1.368968,-2.242258,-0.139288,-0.608875
638.000000,-0.537136,-1.165555,-2.423834,-0.189791,0.037068
639.000000,-0.441300,-1.076985,-2.805405,-0.268018,-0.638301
640.000000,-0.569835,-1.008033,-2.900616,-0.407991,-0.561066
641.000000,-0.924043,-1.286595,-3.162169,-0.634144,-1.996615
642.000000,-1.269856,-1.337497,-3.144431,-0.967640,-1.931265
643.000000,-1.871138,-1.495756,-3.030768,-1.418294,-2.413203
644.000000,-2.372512,-1.819437,-2.995777,-2.008422,-2.832301
645.000000,-2.735446,-2.210145,-2.981778,-2.398408,-2.738505
646.000000,-2.532937,-2.251308,-2.716705,-2.442701,-1.611059
647.000000,-1.498031,-1.631648,-2.045939,-1.983086,2.288279
648.000000,-0.139700,-0.970208,-1.382991,-1.434939,2.831549
649.000000,1.432556,-0.225064,-0.746580,-0.973367,2.656659
650.000000,2.620463,0.419530,-0.216684,-0.615937,2.092489
651.000000,3.202073,1.337641,0.333979,-0.190713,2.274790
652.000000,3.034143,2.276693,1.115919,0.454123,2.455673
653.000000,2.707297,2.875458,1.742434,1.185794,1.989038
654.000000,2.472508,3.201384,2.220645,1.975037,1.979072
655.000000,2.434377,3.334733,2.565011,2.671724,2.216868
656.000000,2.260192,3.183153,2.691339,2.999384,1.726553
657.000000,2.017140,2.804373,2.686374,3.025608,1.443755
658.000000,1.878000,2.497073,2.628733,2.955598,1.428867
659.000000,1.793201,2.295336,2.612918,2.897641,1.609861
660.000000,1.654307,2.167727,2.569911,2.812487,1.556308
661.000000,1.569820,2.024265,2.531437,2.681008,1.357920
662.000000,1.473852,1.844154,2.449543,2.568121,1.034587
663.000000,1.301764,1.673355,2.351467,2.427623,0.624593
664.000000,1.058071,1.496011,2.270114,2.285774,0.422149
665.000000,0.712506,1.243428,2.163760,2.102165,-0.119470
666.000000,0.350963,1.020087,2.031713,1.946645,-0.361627
667.000000,0.132959,0.873354,1.848006,1.855448,0.029850
668.000000,0.067444,0.761774,1.692273,1.794465,0.342356
669.000000,0.040923,0.622284,1.555200,1.751848,0.319591
670.000000,0.099705,0.461893,1.441295,1.702093,0.146993
671.000000,0.079324,0.245398,1.287114,1.639675,-0.510346
672.000000,0.014082,0.085449,1.143837,1.605300,-0.297485
673.000000,-0.065382,0.006256,1.046325,1.611989,0.013131
674.000000,-0.176493,-0.064842,0.942216,1.633877,-0.135971
675.000000,-0.208464,-0.037840,0.833559,1.683317,0.166944
676.000000,-0.104608,0.006440,0.741788,1.702745,-0.131200
677.000000,-0.175397,-0.063482,0.635084,1.604970,-0.879348
678.000000,-0.309130,-0.172941,0.532100,1.504072,-0.464722
679.000000,-0.527077,-0.352179,0.369953,1.391150,-0.988156
680.000000,-0.511526,-0.392127,0.247857,1.346661,0.374882
681.000000,-0.266688,-0.213295,0.148704,1.309410,0.853964
682.000000,0.038357,-0.110419,0.042754,1.236975,0.360685
683.000000,-0.009915,-0.218725,-0.089434,1.146280,-0.644294
684.000000,0.180540,-0.228308,-0.187909,1.060920,-0.222778
685.000000,-0.130740,-0.394923,-0.260897,0.909560,-0.898862
686.000000,-0.572158,-0.503552,-0.299001,0.776187,-0.888529
687.000000,-1.094012,-0.624391,-0.523952,0.608672,-1.667054
688.000000,-1.348096,-0.803233,-0.882230,0.411911,-1.594277
689.000000,-1.937304,-1.056101,-1.399128,0.088272,-2.446397
690.000000,-2.135455,-1.411564,-1.732062,-0.247490,-1.755059
691.000000,-2.137717,-1.720002,-1.683980,-0.548623,-0.897261
692.000000,-1.746885,-1.803636,-1.522952,-0.749321,0.279665
693.000000,-1.192710,-1.657608,-1.367434,-0.840184,0.964355
694.000000,-0.109941,-1.536299,-1.166836,-0.864156,1.304611
695.000000,0.658033,-1.359278,-1.123558,-0.836348,0.604138
696.000000,1.324010,-0.971750,-0.970135,-0.690540,1.405769
697.000000,1.775815,-0.171844,-0.634984,-0.543075,2.017901
698.000000,2.081415,0.837413,-0.268154,-0.399776,2.250590
699.000000,2.256346,2.071663,0.254064,-0.214059,2.205699
700.000000,2.397387,2.680943,0.577216,-0.016703,1.754841
701.000000,2.261080,2.767045,0.772931,0.284581,1.334884
702.000000,2.027562,2.639301,1.060147,0.531792,1.254996
703.000000,1.781219,2.474151,1.560408,0.712040,1.263208
704.000000,1.558443,2.318788,1.946845,0.913522,1.266021
705.000000,1.482722,2.287761,2.381783,1.097422,1.461675
706.000000,1.402489,2.128422,2.558837,1.258763,1.040576
707.000000,1.495280,2.032149,2.822454,1.578374,1.691095
708.000000,1.562388,1.914575,2.900072,1.806965,1.607091
709.000000,1.584764,1.789719,2.938449,2.003845,1.438952
710.000000,1.511954,1.688040,2.832588,2.017429,1.187234
711.000000,1.597335,1.683852,2.716288,2.032568,1.525008
712.000000,1.576682,1.701366,2.573826,2.083037,1.618608
713.000000,1.651970,1.764010,2.471972,2.212585,1.954556
714.000000,1.889575,1.902214,2.438746,2.342231,2.471635
715.000000,2.008689,1.928765,2.382965,2.389099,1.903189
716.000000,1.918758,1.900031,2.248735,2.339969,1.254696
717.000000,1.829495,1.821313,2.118850,2.320549,1.255345
718.000000,1.664653,1.742810,1.991767,2.281755,1.121057
719.000000,1.329288,1.650562,1.861036,2.253150,0.780040
720.000000,1.136441,1.613040,1.780266,2.216636,0.991960
721.000000,1.077462,1.554349,1.724446,2.159668,0.962754
722.000000,0.807996,1.401508,1.620812,2.035120,-0.194231
723.000000,0.600582,1.242996,1.545909,1.934083,0.119655
724.000000,0.514707,1.025578,1.491332,1.853582,0.380456
725.000000,0.342281,0.847278,1.430316,1.797752,0.246818
726.000000,0.329636,0.814190,1.428366,1.757500,1.074304
727.000000,0.639498,0.784265,1.399296,1.707820,1.154926
728.000000,0.950669,0.801832,1.386542,1.664131,1.429417
729.000000,1.125132,0.843301,1.367104,1.611532,1.080388
730.000000,1.358372,0.876139,1.371949,1.581873,1.257750
731.000000,1.456794,0.950218,1.374118,1.575737,1.519788
732.000000,1.532825,1.197065,1.373445,1.572625,1.512123
733.000000,1.464977,1.353097,1.331638,1.558260,1.119275
734.000000,1.533672,1.500703,1.251689,1.553369,1.360903
735.000000,1.412964,1.570081,1.176053,1.522547,0.622463
736.000000,1.157204,1.496648,1.141312,1.501366,0.237314
737.000000,1.008462,1.481051,1.133780,1.474091,0.846195
738.000000,0.919107,1.414740,1.133999,1.447468,0.693304
739.000000,0.631534,1.347108,1.144442,1.415483,0.151694
740.000000,0.419553,1.205342,1.113107,1.388229,-0.361538
741.000000,0.358013,1.034956,1.098939,1.358087,-0.101158
742.000000,-0.034736,0.761504,1.174210,1.312986,-0.652104
743.000000,-0.490427,0.466439,1.204456,1.237547,-0.897891
744.000000,-0.629211,0.128331,1.227499,1.122662,-0.372154
745.000000,-0.512665,-0.002705,1.274751,1.042629,0.060434
746.000000,-0.750871,-0.238630,1.151145,0.973009,-1.102071
747.000000,-1.099706,-0.788484,0.925934,0.859148,-2.018880
748.000000,-1.224985,-1.178222,0.682872,0.763227,-1.407102
749.000000,-1.312375,-1.321580,0.509335,0.713551,-0.816772
750.000000,-1.241405,-1.190499,0.382709,0.683298,0.199822
751.000000,-0.967149,-1.138956,0.168888,0.645284,0.049527
752.000000,-0.408816,-0.960585,-0.047238,0.728750,0.360007
753.000000,0.079778,-0.716631,-0.196121,0.807562,0.631832
754.000000,0.331644,-0.642222,-0.497649,0.849494,0.152674
755.000000,0.082840,-0.791384,-0.860179,0.855136,-0.930721
756.000000,-0.289031,-0.846274,-1.268383,0.738042,-1.450713
757.000000,-0.848957,-0.789360,-1.897149,0.560082,-1.719638
758.000000,-1.516207,-0.881544,-2.418838,0.258114,-1.986250
759.000000,-2.210109,-1.257965,-2.781190,-0.220474,-2.760075
760.000000,-2.457900,-1.705176,-2.804008,-0.886570,-2.327473
761.000000,-2.519139,-2.013027,-2.772995,-1.768284,-2.135342
762.000000,-2.487549,-2.238640,-2.650773,-2.559871,-1.945651
763.000000,-2.500338,-2.481197,-2.584391,-3.010263,-2.289152
764.000000,-2.358574,-2.593650,-2.551679,-3.131026,-2.166172
765.000000,-2.331979,-2.623387,-2.558291,-3.044665,-2.275443
766.000000,-2.277377,-2.574278,-2.463647,-2.883471,-2.012125
767.000000,-2.251925,-2.514990,-2.334893,-2.790209,-1.968122
768.000000,-2.238501,-2.489110,-2.303120,-2.729639,-2.261604
769.000000,-2.061636,-2.301777,-2.226071,-2.573106,-1.410899
770.000000,-1.977592,-2.227313,-2.253017,-2.477301,-1.869452
771.000000,-1.603921,-1.982248,-2.120814,-2.287021,-0.205971
772.000000,-1.272297,-1.792826,-2.038213,-2.129219,-0.279078
773.000000,-0.824505,-1.565902,-1.966507,-1.979747,-0.056909
774.000000,-0.325237,-1.247080,-1.821772,-1.805015,0.988313
775.000000,0.255289,-0.948231,-1.692277,-1.688035,0.743333
776.000000,0.369050,-0.716100,-1.595261,-1.582374,0.289101
777.000000,0.681529,-0.371426,-1.436896,-1.406012,1.110631
778.000000,0.843395,-0.016315,-1.307998,-1.291394,0.670848
779.000000,0.660835,0.183745,-1.180518,-1.238352,0.167274
780.000000,0.735810,0.578032,-1.000518,-1.169137,1.082612
781.000000,1.044323,0.832549,-0.774592,-1.062419,1.677821
782.000000,1.147966,1.080524,-0.557168,-0.982049,1.551796
783.000000,1.361051,1.301188,-0.290226,-0.913479,1.596576
784.000000,1.752501,1.433379,0.041950,-0.806107,1.937490
785.000000,1.783569,1.502751,0.371497,-0.712784,1.302498
786.000000,1.625784,1.580170,0.699504,-0.618760,1.021010
787.000000,1.483579,1.547744,1.054671,-0.508100,0.954604
788.000000,1.293462,1.538503,1.439404,-0.385448,0.748655
789.000000,1.016999,1.565818,1.700179,-0.186215,0.671915
790.000000,0.874824,1.482173,1.968491,0.044985,0.657956
791.000000,0.872583,1.380243,2.038459,0.387937,1.016651
792.000000,0.907083,1.309733,2.088344,0.832540,1.113551
793.000000,0.886763,1.185531,2.039678,1.345447,0.658940
794.000000,0.904073,1.040876,1.908628,1.903639,0.757202
795.000000,0.978977,1.000187,1.831978,2.441842,1.019327
796.000000,0.958633,0.982256,1.785561,2.723791,0.925334
797.000000,0.975094,1.003911,1.704779,2.831439,1.215182
798.000000,1.164420,1.083207,1.681303,2.868163,1.582030
799.000000,1.311994,1.155586,1.679116,2.748470,1.406375
800.000000,1.431225,1.238714,1.622823,2.676424,1.566691
801.000000,1.590686,1.283284,1.538727,2.490497,1.525911
802.000000,1.629495,1.296622,1.460826,2.339630,1.168536
803.000000,1.608835,1.404833,1.403175,2.219043,1.417563
804.000000,1.515258,1.469833,1.313209,2.050185,0.943482
805.000000,1.499750,1.551053,1.296602,1.952005,1.521225
806.000000,1.539998,1.679635,1.314372,1.902226,1.727858
807.000000,1.735369,1.795467,1.358603,1.830940,2.033191
808.000000,1.777840,1.804669,1.409449,1.780929,1.648443
809.000000,1.983962,1.874541,1.484086,1.771655,1.942985
810.000000,2.118490,1.950755,1.581316,1.736994,2.199151
811.000000,2.143762,1.996537,1.647035,1.679946,2.009867
812.000000,1.969081,1.992853,1.676155,1.620940,1.404484
813.000000,1.969789,2.005257,1.767385,1.586617,1.806680
814.000000,1.916852,2.048490,1.839285,1.542205,1.760610
815.000000,1.816367,2.025712,1.879033,1.535306,1.722505
816.000000,1.690335,1.953926,1.901196,1.536693,1.439127
817.000000,1.729545,1.890585,1.909586,1.555431,1.671696
818.000000,1.653804,1.845260,1.875174,1.580643,1.482132
819.000000,1.464081,1.712818,1.812143,1.585282,0.802177
820.000000,1.302877,1.577469,1.755222,1.596967,0.890094
821.000000,1.119622,1.424246,1.681949,1.578066,0.463228
822.000000,0.863557,1.330193,1.630469,1.556182,0.420268
823.000000,0.623961,1.197203,1.571853,1.561609,0.364052
824.000000,0.554035,1.079359,1.547187,1.568128,0.473376
825.000000,0.531839,0.990841,1.516356,1.572708,0.880434
826.000000,0.644880,0.943550,1.484700,1.587479,1.049102
827.000000,0.900187,0.907393,1.461149,1.601910,1.629976
828.000000,1.226956,0.912360,1.463723,1.601649,1.790987
829.000000,1.472322,0.995321,1.442278,1.601878,1.531836
830.000000,1.648370,1.088364,1.411378,1.602720,1.671065
831.000000,1.565777,1.140482,1.344124,1.573820,0.640101
832.000000,1.545277,1.295366,1.348847,1.585211,1.516875
833.000000,1.364104,1.392763,1.303335,1.569716,0.882870
834.000000,1.400683,1.556708,1.295001,1.594755,1.735599
835.000000,1.398341,1.666047,1.287293,1.598201,1.691678
836.000000,1.515026,1.681034,1.272503,1.575683,0.932694
837.000000,0.648536,1.280327,1.094111,1.457525,-2.474032
838.000000,0.039706,0.925500,0.958871,1.380752,-1.597956
839.000000,-1.191104,0.410072,0.820052,1.265063,-2.428067
840.000000,-2.307765,-0.274507,0.645231,1.129786,-2.290028
841.000000,-2.746000,-0.796417,0.520987,1.011416,-1.715763
842.000000,-2.383556,-1.506230,0.397102,0.925665,-1.464075
843.000000,-2.185908,-1.981852,0.276848,0.818913,-1.180063
844.000000,-1.758779,-2.327490,0.166379,0.722081,-0.737078
845.000000,-1.414613,-2.520748,-0.037899,0.602336,-0.869508
846.000000,-1.064241,-2.425487,-0.212608,0.520750,-0.254902
847.000000,-0.884449,-2.052065,-0.567881,0.370632,-0.696262
848.000000,-0.687050,-1.800034,-0.942207,0.234997,-0.339967
849.000000,-0.924718,-1.685003,-1.541391,0.037701,-1.696851
850.000000,-1.125469,-1.582471,-2.103335,-0.207202,-1.655449
851.000000,-1.483334,-1.579342,-2.411705,-0.470175,-1.768737
852.000000,-1.616179,-1.547787,-2.609902,-0.735105,-1.370300
853.000000,-1.846412,-1.588175,-2.659594,-1.062410,-1.580615
854.000000,-1.574089,-1.528751,-2.582074,-1.282101,-0.606459
855.000000,-1.327222,-1.457718,-2.490865,-1.530745,-0.586610
856.000000,-1.045553,-1.450204,-2.356147,-1.737137,-0.501187
857.000000,-0.752598,-1.335281,-2.033178,-1.874036,-0.040223
858.000000,-0.381080,-1.255655,-1.818256,-1.959582,0.083610
859.000000,-0.225308,-1.035472,-1.588590,-1.976403,0.103016
860.000000,-0.035483,-0.807632,-1.376511,-1.968076,0.261915
861.000000,0.132774,-0.567775,-1.222542,-1.878369,0.193927
862.000000,0.191608,-0.374660,-1.100703,-1.863623,0.189945
863.000000,0.301107,-0.092350,-0.981152,-1.785397,0.556201
864.000000,0.483288,0.093995,-0.884796,-1.758048,0.886742
865.000000,0.692927,0.325493,-0.774763,-1.738434,1.166867
866.000000,1.113500,0.656163,-0.689286,-1.675233,1.767786
867.000000,1.200656,0.773735,-0.649518,-1.523773,0.165015
868.000000,1.048861,0.836328,-0.660340,-1.455851,-0.199724
869.000000,0.690554,0.861133,-0.546607,-1.342126,-0.360216
870.000000,0.310118,0.836293,-0.405297,-1.214240,-0.196638
871.000000,-0.246751,0.775151,-0.237193,-1.130529,-0.384785
872.000000,-0.028694,0.932833,0.008607,-0.988453,1.034121
873.000000,0.298858,0.983988,0.333120,-0.861417,1.040619
874.000000,0.838856,1.072987,0.609623,-0.727027,1.631035
875.000000,1.748841,1.445922,1.103540,-0.436483,2.929367
876.000000,1.710936,1.085616,1.277716,-0.450899,-0.121570
877.000000,0.873699,0.624463,1.124678,-0.596286,-1.887055
878.000000,0.353855,0.453092,1.063856,-0.703201,-0.896406
879.000000,-0.062591,0.499766,1.094945,-0.529170,-0.061611
880.000000,-0.331319,0.947322,1.374310,-0.051368,1.857919
881.000000,0.265100,1.377055,1.598563,0.553297,1.767299
882.000000,1.299500,1.463926,1.695942,1.109045,1.304761
883.000000,2.066326,1.540019,1.704127,1.728541,1.268807
884.000000,2.419960,1.474302,1.651275,2.045996,0.979872
885.000000,2.425526,1.336912,1.744296,2.403731,1.919996
886.000000,2.461757,1.873731,1.840763,2.614868,2.026941
887.000000,2.559433,2.672320,2.073573,2.631772,1.965754
888.000000,2.523051,3.029049,2.260882,2.555310,1.677048
889.000000,2.497983,3.044459,2.382538,2.459818,1.520393
890.000000,2.219985,2.723322,2.405509,2.336438,1.249698
891.000000,1.945166,2.464850,2.407062,2.236840,1.161772
892.000000,1.653035,2.274769,2.286633,2.138764,0.914438
893.000000,1.533128,2.172077,2.223227,2.068837,1.257364
894.000000,1.383600,2.072738,2.106024,1.979497,0.972891
895.000000,1.363015,1.925212,1.932010,1.927325,1.208396
896.000000,1.275472,1.732529,1.952233,1.841673,0.856993
897.000000,1.282060,1.582657,2.094773,1.844984,0.995588
898.000000,1.118307,1.424714,2.115458,1.834639,0.601032
899.000000,0.970349,1.264095,2.057750,1.813631,0.345227
900.000000,0.588733,1.049108,1.837654,1.738588,-0.460335
901.000000,0.145786,0.782348,1.610046,1.648324,-1.059727
902.000000,-0.494949,0.485154,1.395213,1.491522,-1.487026
903.000000,-1.050316,0.128601,1.198022,1.350774,-1.421051
904.000000,-1.471607,-0.191423,1.035044,1.203987,-1.253860
905.000000,-1.636486,-0.571238,0.802025,0.980623,-1.276654
906.000000,-1.701567,-0.948072,0.530447,0.895276,-1.497531
907.000000,-1.707905,-1.375638,0.232195,0.904144,-1.740404
908.000000,-1.702594,-1.704612,-0.057116,0.881466,-1.631298
909.000000,-1.749324,-1.959908,-0.373659,0.806003,-1.662719
910.000000,-1.837394,-2.072916,-0.723697,0.564373,-1.809743
911.000000,-1.828862,-2.065303,-1.083614,0.289375,-1.696967
912.000000,-1.789735,-2.010621,-1.431875,-0.013680,-1.727872
913.000000,-1.693261,-1.910956,-1.743572,-0.311395,-1.294793
914.000000,-1.486529,-1.769278,-1.913588,-0.549857,-0.711635
915.000000,-1.259237,-1.641175,-2.056712,-0.929141,-0.688038
916.000000,-1.013779,-1.476831,-2.092885,-1.326238,-0.474324
917.000000,-0.723512,-1.298236,-2.087517,-1.689151,-0.299917
918.000000,-0.482570,-1.135042,-2.013421,-1.940662,-0.123211
919.000000,-0.299661,-0.949717,-1.897249,-2.057828,0.199940
920.000000,-0.061177,-0.721818,-1.724283,-2.055936,0.473300
921.000000,0.183525,-0.477127,-1.527511,-1.994168,0.697358
922.000000,0.393050,-0.217248,-1.330873,-1.904923,0.673304
923.000000,0.492392,-0.034417,-1.185177,-1.903468,0.292918
924.000000,0.531381,0.090433,-1.059505,-1.862951,0.343802
925.000000,0.685880,0.310296,-0.886669,-1.778690,1.248702
926.000000,0.850229,0.543954,-0.691726,-1.658089,1.505654
927.000000,1.168540,0.838738,-0.454598,-1.528003,2.115909
928.000000,1.433230,1.047408,-0.269703,-1.444188,1.361672
929.000000,1.430150,1.085374,-0.149237,-1.449966,0.104062
930.000000,1.367444,1.173001,0.061261,-1.338303,0.906834
931.000000,1.066561,1.133717,0.243884,-1.248032,0.151509
932.000000,0.573656,1.065460,0.455412,-1.133511,0.000518
933.000000,0.343373,1.085429,0.683187,-0.994553,0.380621
934.000000,0.347586,1.054825,0.847570,-0.887044,0.125808
935.000000,0.336502,0.985094,1.094492,-0.700833,0.859456
936.000000,0.500130,0.884105,1.316647,-0.474499,0.883690
937.000000,0.634209,0.671079,1.462798,-0.240686,0.598078
938.000000,0.847549,0.654772,1.623275,0.088618,1.333881
939.000000,0.989989,0.731417,1.642070,0.429695,0.746633
940.000000,0.835679,0.637572,1.543469,0.801367,0.092299
941.000000,0.605768,0.605811,1.389166,1.177436,-0.270822
942.000000,0.593840,0.677806,1.302733,1.668062,0.505118
943.000000,0.051664,0.554992,1.168728,1.868738,-1.174250
944.000000,-0.391557,0.482329,1.057355,1.928910,-0.987898
945.000000,-0.744757,0.273436,0.868686,1.927587,-1.111922
946.000000,-1.446150,-0.161350,0.579544,1.727647,-2.472726
947.000000,-2.316866,-0.640736,0.228482,1.508129,-2.234653
948.000000,-2.374180,-1.314420,-0.020321,1.330037,-1.562117
949.000000,-2.611768,-2.099359,-0.233884,1.020033,-2.289927
950.000000,-2.598973,-2.533247,-0.536302,0.721930,-1.808384
951.000000,-2.464942,-2.778374,-0.858330,0.318587,-2.277437
952.000000,-2.250031,-2.821710,-1.120736,-0.006933,-1.641072
953.000000,-2.177884,-2.626615,-1.443681,-0.268276,-1.564039
954.000000,-1.895274,-2.438980,-1.677300,-0.486996,-1.155250
955.000000,-1.690087,-2.263001,-1.933562,-0.809813,-0.963538
956.000000,-1.356716,-1.995411,-2.082477,-1.129508,-0.766835
957.000000,-1.139579,-1.781170,-2.101065,-1.486386,-0.654384
958.000000,-1.011102,-1.698607,-2.190194,-1.736489,-1.021111
959.000000,-0.760205,-1.437587,-2.097287,-1.702626,0.014399
960.000000,-0.565413,-1.247848,-1.967811,-1.764687,-0.082342
961.000000,-0.404433,-0.992037,-1.835633,-1.729000,-0.066580
962.000000,-0.405702,-0.871396,-1.818407,-1.729379,-0.677454
963.000000,-0.314937,-0.747965,-1.716764,-1.750953,-0.623085
964.000000,-1.045974,-0.984322,-1.819033,-1.953091,-2.868494
965.000000,-1.905567,-1.369940,-1.969350,-2.228659,-3.212779
966.000000,-2.607854,-1.791621,-2.054937,-2.425424,-3.031993
967.000000,-2.876815,-2.095072,-2.098467,-2.486063,-2.484444
968.000000,-2.987743,-2.272764,-2.149788,-2.531030,-2.258346
969.000000,-2.719262,-2.428503,-2.122268,-2.485145,-1.844133
970.000000,-2.163210,-2.335585,-1.997528,-2.314591,-0.493735
971.000000,-1.522923,-2.180070,-1.809177,-2.129138,0.181029
972.000000,-1.029780,-2.058937,-1.699526,-2.031578,-0.059217
973.000000,-0.910326,-2.159613,-1.742511,-2.017308,-1.682156
974.000000,-0.806448,-2.043328,-1.781973,-1.994901,-1.382545
975.000000,-0.837325,-1.776324,-1.761366,-1.928903,-0.569740
976.000000,-1.029907,-1.503163,-1.751611,-1.843559,-0.588856
977.000000,-1.124140,-1.258996,-1.733870,-1.767093,-0.462176
978.000000,-0.825681,-1.022667,-1.698109,-1.715974,-0.415184
979.000000,-0.575847,-0.821041,-1.705818,-1.644570,-0.351269
980.000000,-0.451486,-0.771145,-1.684663,-1.575402,-0.041476
981.000000,-0.176588,-0.733322,-1.622396,-1.460007,0.555223
982.000000,0.136467,-0.618789,-1.524423,-1.357243,0.815522
983.000000,0.441171,-0.254934,-1.436976,-1.261957,0.813043
984.000000,0.774524,0.108166,-1.227963,-1.176036,0.990988
985.000000,0.936152,0.296414,-0.999230,-1.122132,0.627891
986.000000,0.678878,0.315716,-0.840206,-1.147240,-0.521655
987.000000,0.473209,0.390671,-0.655364,-1.150095,-0.048841
988.000000,0.301635,0.484929,-0.449889,-1.132502,0.112504
989.000000,-0.032829,0.508298,-0.303856,-1.185604,-0.322007
990.000000,-0.220770,0.526831,-0.272552,-1.226000,-0.050185
991.000000,-0.123403,0.428431,-0.333894,-1.286193,-0.168777
992.000000,-0.042989,0.345500,-0.327250,-1.311153,0.292682
993.000000,0.094869,0.316456,-0.039475,-1.334597,0.671176
994.000000,0.360557,0.211743,0.264504,-1.251007,0.551413
995.000000,0.478020,0.135273,0.457118,-1.106744,0.356244
996.000000,0.383448,0.171882,0.551409,-0.969653,-0.566191
997.000000,0.128949,0.057645,0.602824,-0.835273,-0.718915
998.000000,-0.280449,-0.114149,0.615207,-0.676620,-0.857057
999.000000,-0.589510,-0.073225,0.691003,-0.472810,-0.256537
1000.000000,-0.831199,-0.076620,0.710281,-0.445244,-0.094307
1001.000000,-0.817427,-0.126204,0.508823,-0.587390,-0.568654
1002.000000,-0.796769,-0.325429,0.176559,-0.739283,-0.808201
1003.000000,-0.618037,-0.569787,-0.116323,-0.479438,-0.387851
1004.000000,-0.519065,-0.760354,-0.404021,-0.159506,0.080581
1005.000000,-0.588921,-0.993124,-0.643416,-0.064708,-0.395003
1006.000000,-0.541287,-0.978730,-0.546844,0.047315,-0.439818
1007.000000,-0.494829,-0.951525,-0.622550,0.099289,-0.685353
1008.000000,-0.692190,-0.959943,-0.801360,0.073111,-1.097626
1009.000000,-0.681155,-0.875792,-0.707005,0.215753,0.127626
1010.000000,-0.744226,-0.972990,-0.806394,0.133888,-0.626149
1011.000000,-0.763240,-0.946127,-0.881449,-0.151452,-0.544644
1012.000000,-0.652346,-0.813007,-1.055201,-0.513544,-0.294609
1013.000000,-0.656076,-0.918889,-1.475585,-1.051411,-1.269728
1014.000000,-0.976502,-1.066074,-1.749516,-1.634030,-1.058686
1015.000000,-1.080029,-1.077738,-1.821882,-1.993273,-0.581996
1016.000000,-1.149027,-1.055274,-1.635196,-1.802220,-0.280592
1017.000000,-1.403636,-1.028032,-1.464558,-1.796476,-0.546396
1018.000000,-1.057405,-0.894912,-1.284664,-1.798816,-0.224791
1019.000000,-1.207639,-1.242734,-1.342300,-1.749005,-1.621746
1020.000000,-2.142180,-1.752246,-1.553649,-1.929684,-2.992976
1021.000000,-2.446134,-2.049143,-1.549107,-1.924436,-1.562426
1022.000000,-2.076119,-2.043911,-1.370512,-1.881258,0.155567
1023.000000,-1.909512,-1.797781,-1.299832,-1.932713,0.055758
1024.000000,-1.512521,-1.627226,-1.328351,-1.939315,-0.063475
1025.000000,-0.481248,-1.503426,-1.295450,-1.874457,0.229924
1026.000000,-0.241510,-1.690650,-1.357736,-1.743967,-1.110552
1027.000000,-0.574771,-1.709020,-1.362812,-1.599560,-0.665717
1028.000000,-0.175092,-1.429226,-1.179247,-1.377481,1.134856
1029.000000,-0.151348,-1.133659,-1.286007,-1.332204,-0.002585
1030.000000,0.095070,-0.266904,-1.224510,-1.264735,0.895388
1031.000000,0.528856,0.156082,-1.243742,-1.181752,0.050474
1032.000000,0.353744,-0.136964,-1.406087,-1.133022,-1.131118
1033.000000,0.097036,-0.048384,-1.203024,-1.066423,0.460072
1034.000000,0.307653,0.091624,-1.026623,-1.063674,0.562114
1035.000000,1.057979,0.697643,-0.622252,-0.889682,2.621876
1036.000000,1.785144,1.411544,-0.335078,-0.754826,1.830212
1037.000000,2.373893,1.712262,-0.146177,-0.660880,0.781092
1038.000000,1.981351,1.367737,-0.171126,-0.589881,-0.290051
1039.000000,2.166009,1.677633,0.346687,-0.549007,1.404642
1040.000000,1.548776,1.648131,1.171777,-0.434989,0.861444
1041.000000,1.540096,1.988716,1.970438,-0.170159,1.838552
1042.000000,1.658979,2.324206,2.223175,0.056055,1.256968
1043.000000,1.946724,2.257203,2.299026,0.530833,0.974948
1044.000000,1.834218,2.220161,2.358650,1.056070,1.250566
1045.000000,1.894813,1.924715,2.347844,1.493041,1.332640
1046.000000,1.698028,1.774514,2.458001,1.893129,1.288921
1047.000000,2.158321,2.087206,2.705169,2.633311,2.852950
1048.000000,2.416252,2.349729,2.634401,2.930036,2.238441
1049.000000,2.545895,2.374053,2.643380,3.147291,2.210722
1050.000000,2.506181,2.360864,2.512302,3.200842,1.750255
1051.000000,2.435828,2.227798,2.425586,3.020776,1.467722
1052.000000,2.163379,2.220682,2.440364,2.800929,1.793579
1053.000000,1.984370,2.204562,2.348847,2.630692,1.565149
1054.000000,1.969292,2.253199,2.336580,2.575731,2.208391
1055.000000,1.998153,2.256291,2.220879,2.499418,1.954775
1056.000000,2.003427,2.226881,2.135997,2.454466,1.642667
1057.000000,2.043834,2.123974,2.145451,2.427565,2.045855
1058.000000,2.037159,2.037027,2.158740,2.317718,1.673868
1059.000000,1.902280,1.951785,2.109627,2.260672,1.619653
1060.000000,1.905206,1.964622,2.117112,2.219199,1.987029
1061.000000,1.781392,1.897154,2.027946,2.146975,1.127707
1062.000000,1.591388,1.813882,1.975686,2.112286,1.130561
1063.000000,1.511731,1.774356,1.949387,2.056205,1.284511
1064.000000,1.350160,1.631706,1.889594,1.985691,0.810430
1065.000000,1.084516,1.508811,1.831040,1.878950,0.759711
1066.000000,1.064333,1.448006,1.797838,1.818184,1.045066
1067.000000,1.027458,1.337937,1.703597,1.785527,0.960694
1068.000000,0.916821,1.247971,1.628799,1.771754,0.772686
1069.000000,0.919859,1.167647,1.559664,1.730664,0.831523
1070.000000,0.837001,0.988522,1.491448,1.688092,0.283323
1071.000000,0.727047,0.928681,1.449934,1.638709,0.515082
1072.000000,0.490458,0.804605,1.367177,1.587031,-0.230385
1073.000000,0.367302,0.693727,1.317833,1.562096,0.191274
1074.000000,0.114640,0.597548,1.217119,1.522527,-0.368341
1075.000000,0.150591,0.576679,1.160342,1.510219,0.583565
1076.000000,0.117858,0.511011,1.121033,1.503833,0.613935
1077.000000,0.079890,0.354191,1.013530,1.425677,-0.697122
1078.000000,-0.300493,0.139619,0.899345,1.350294,-1.508898
1079.000000,0.077577,0.107742,0.861734,1.325432,1.186793
1080.000000,0.330312,0.228747,0.799555,1.328446,1.653662
1081.000000,0.597864,0.320617,0.806797,1.340776,1.576567
1082.000000,1.425580,0.673111,0.832548,1.350138,1.958756
1083.000000,2.548362,1.065070,0.857372,1.375711,2.125586
1084.000000,2.830121,1.742507,0.960231,1.378664,2.368507
1085.000000,2.948817,2.298634,1.124371,1.406593,2.632219
1086.000000,3.097628,2.812064,1.338353,1.473929,2.912654
1087.000000,2.872385,3.076558,1.524949,1.482268,1.977094
1088.000000,2.979030,3.409222,1.901584,1.578323,3.041774
1089.000000,2.807549,3.172375,2.177745,1.638050,2.177360
1090.000000,2.671365,2.980930,2.475815,1.678060,2.301945
1091.000000,2.497196,2.842755,2.661592,1.779125,2.208661
1092.000000,2.556814,2.772971,2.864130,1.903366,2.503723
1093.000000,2.439765,2.711855,2.913656,2.010029,2.454344
1094.000000,2.463583,2.652101,2.932908,2.138279,2.433407
1095.000000,2.402763,2.549039,2.838290,2.228669,2.142721
1096.000000,2.350405,2.440243,2.746473,2.280046,2.081856
1097.000000,2.186856,2.354544,2.664397,2.287548,1.749006
1098.000000,2.006577,2.197248,2.589495,2.275162,1.567763
1099.000000,1.829365,2.106408,2.465262,2.250846,1.525581
1100.000000,1.698374,2.015330,2.354287,2.238808,1.476580
1101.000000,1.518938,1.905523,2.242986,2.191066,1.181383
1102.000000,1.380186,1.770118,2.137127,2.157882,1.055176
1103.000000,1.282315,1.645290,2.048836,2.114162,1.075832
1104.000000,1.217705,1.534631,1.978143,2.092260,1.204906
1105.000000,1.174221,1.453737,1.914196,2.055341,1.269949
1106.000000,1.192711,1.375718,1.847861,2.021059,1.273318
1107.000000,1.286064,1.351898,1.822185,2.019927,1.519698
1108.000000,1.381834,1.347192,1.769521,2.026323,1.560777
1109.000000,1.449190,1.345435,1.740763,1.998038,1.545565
1110.000000,1.527546,1.359873,1.716182,1.972520,1.657792
1111.000000,1.694013,1.450674,1.716157,1.969605,2.076475
1112.000000,1.786673,1.546310,1.697486,1.957742,1.960174
1113.000000,1.805416,1.609081,1.661701,1.931674,1.644702
1114.000000,1.780449,1.634087,1.611876,1.895683,1.401722
1115.000000,1.739972,1.656157,1.574846,1.859841,1.428791
1116.000000,1.557361,1.652999,1.527039,1.810972,1.147493
1117.000000,1.422394,1.638767,1.503530,1.784487,1.307233
1118.000000,1.316435,1.603588,1.482656,1.734481,1.126612
1119.000000,1.327184,1.601647,1.479716,1.711978,1.472280
1120.000000,1.326922,1.585165,1.479091,1.687736,1.445134
1121.000000,1.378078,1.511378,1.494472,1.663452,1.373839
1122.000000,1.347937,1.424401,1.508622,1.624669,1.134195
1123.000000,1.434767,1.408282,1.538402,1.595784,1.531931
1124.000000,1.438417,1.418485,1.558969,1.563736,1.502086
1125.000000,1.439688,1.420736,1.574139,1.538089,1.460632
1126.000000,1.414877,1.435562,1.579787,1.507553,1.259351
1127.000000,1.420348,1.421409,1.565346,1.486724,1.170396
1128.000000,1.372744,1.440994,1.554079,1.476848,1.297865
1129.000000,1.226196,1.367894,1.519962,1.454937,0.764091
1130.000000,1.144479,1.328379,1.491857,1.443488,1.058640
1131.000000,1.040286,1.266566,1.421197,1.437457,0.722875
1132.000000,0.994588,1.252381,1.365800,1.443850,0.951283
1133.000000,0.940452,1.206927,1.336564,1.453957,1.102755
1134.000000,1.039175,1.174358,1.329225,1.462288,1.263751
1135.000000,1.076882,1.143460,1.319609,1.468579,1.270652
1136.000000,1.350116,1.194059,1.354672,1.490049,2.038463
1137.000000,1.619699,1.273914,1.384048,1.502720,2.137153
1138.000000,1.823559,1.327888,1.419436,1.509427,1.898365
1139.000000,2.131903,1.536586,1.458253,1.531950,2.545862
1140.000000,2.302311,1.677497,1.481439,1.538866,1.999520
1141.000000,2.370428,1.923474,1.532028,1.535956,2.449348
1142.000000,2.394026,2.116532,1.601672,1.539320,2.409037
1143.000000,2.386677,2.222575,1.632381,1.552057,2.108937
1144.000000,2.289172,2.291690,1.670403,1.580565,2.141545
1145.000000,2.195753,2.283764,1.686319,1.592700,1.698392
1146.000000,1.994456,2.183640,1.704195,1.610764,1.463371
1147.000000,1.784187,2.074932,1.720803,1.615343,1.336087
1148.000000,1.514569,1.935264,1.693225,1.607483,0.713569
1149.000000,1.131045,1.709248,1.674635,1.565826,0.184501
1150.000000,0.809999,1.536020,1.632581,1.524049,0.093458
1151.000000,-0.391678,0.876833,1.363797,1.339404,-3.484113
1152.000000,-1.760321,0.066809,1.018614,1.134087,-3.389363
1153.000000,-2.473657,-0.629231,0.733220,0.954067,-2.283098
1154.000000,-2.818446,-1.362092,0.408292,0.759954,-2.141885
1155.000000,-2.926410,-1.952612,0.061994,0.554442,-1.936364
1156.000000,-2.516034,-2.341203,-0.344979,0.345595,-1.736310
1157.000000,-2.093697,-2.531110,-0.755433,0.133733,-1.483249
1158.000000,-1.881121,-2.560314,-1.148542,-0.112686,-1.382620
1159.000000,-1.709181,-2.521112,-1.570600,-0.363417,-1.380687
1160.000000,-1.629033,-2.494312,-1.944428,-0.710418,-1.575343
1161.000000,-1.525052,-2.212746,-2.221041,-1.026069,-1.286873
1162.000000,-1.409161,-1.916963,-2.368582,-1.317182,-0.987910
1163.000000,-1.316682,-1.742861,-2.433863,-1.595606,-0.977732
1164.000000,-1.168005,-1.559746,-2.420418,-1.787455,-0.693143
1165.000000,-1.060191,-1.451644,-2.408126,-1.981045,-1.052620
1166.000000,-0.995505,-1.358421,-2.358649,-2.122235,-0.980108
1167.000000,-1.018050,-1.308259,-2.311897,-2.219453,-1.097671
1168.000000,-0.990625,-1.241248,-2.221335,-2.225676,-0.854735
1169.000000,-1.039827,-1.187089,-2.135736,-2.239471,-0.939268
1170.000000,-1.033564,-1.122992,-2.068477,-2.226896,-1.025223
1171.000000,-0.953381,-1.042235,-1.866320,-2.181902,-0.586809
1172.000000,-0.870529,-1.008185,-1.685154,-2.152779,-0.696510
1173.000000,-0.822200,-0.967587,-1.561693,-2.111657,-0.601339
1174.000000,-0.681850,-0.925480,-1.432135,-2.056500,-0.213214
1175.000000,-0.456144,-0.818671,-1.306599,-1.986203,0.103381
1176.000000,-0.287112,-0.705429,-1.191661,-1.918781,0.322052
1177.000000,-0.099579,-0.589812,-1.107721,-1.874708,0.154799
1178.000000,0.080074,-0.510895,-1.039395,-1.832795,0.055892
1179.000000,0.298202,-0.367958,-0.955839,-1.775046,0.810794
1180.000000,0.591629,-0.157694,-0.851219,-1.725608,1.781165
1181.000000,1.272472,0.112989,-0.730662,-1.557950,2.863719
1182.000000,2.180939,0.516492,-0.623524,-1.381088,2.602380
1183.000000,2.629417,0.979495,-0.526268,-1.262034,1.709301
1184.000000,2.591190,1.483658,-0.435659,-1.138724,1.874243
1185.000000,2.434365,1.892562,-0.297559,-1.024477,1.584179
1186.000000,2.211797,2.201494,-0.117849,-0.900785,2.003257
1187.000000,2.040613,2.372183,0.119990,-0.784252,1.897384
1188.000000,2.096418,2.467669,0.398403,-0.653769,2.078035
1189.000000,2.073154,2.400033,0.753253,-0.512071,1.893063
1190.000000,2.008225,2.280577,1.160358,-0.348501,1.487397
1191.000000,1.988603,2.162047,1.563048,-0.160852,1.971015
1192.000000,1.948138,2.053751,1.943296,0.021651,1.783907
1193.000000,1.821375,1.994975,2.184738,0.223512,1.526329
1194.000000,1.769710,1.950118,2.277833,0.443582,1.685368
1195.000000,1.685890,1.870231,2.212892,0.716960,1.175139
1196.000000,1.667713,1.849410,2.172020,1.079942,1.859219
1197.000000,1.706750,1.851471,2.153559,1.496303,1.968995
1198.000000,1.729570,1.803668,2.123248,1.830221,1.678924
1199.000000,1.704847,1.761467,2.064586,2.088641,1.572830
1200.000000,1.802853,1.768718,2.025657,2.263716,1.703823
1201.000000,1.735422,1.716408,1.946221,2.285127,1.533619
1202.000000,1.631357,1.676104,1.876034,2.267413,1.461877
1203.000000,1.585449,1.660998,1.840360,2.217642,1.450706
1204.000000,1.536227,1.624000,1.795728,2.130261,1.321722
1205.000000,1.475566,1.646380,1.769938,2.043763,1.416092
1206.000000,1.441163,1.597160,1.729495,1.964901,1.374606
1207.000000,1.412240,1.530202,1.693290,1.913341,1.324402
1208.000000,1.336963,1.470636,1.639856,1.871312,1.069462
1209.000000,1.284071,1.420531,1.595401,1.823463,1.043693
1210.000000,1.264765,1.381017,1.582650,1.794791,1.341763
1211.000000,1.217760,1.342209,1.540608,1.739884,1.153753
1212.000000,1.176284,1.309051,1.507497,1.690867,1.140573
1213.000000,1.103478,1.236159,1.469950,1.650428,0.666455
1214.000000,1.087110,1.200877,1.438224,1.617215,0.943600
1215.000000,0.854741,1.086993,1.406571,1.573048,0.100772
1216.000000,0.415107,0.870649,1.295099,1.492954,-1.222400
1217.000000,0.012324,0.685680,1.192004,1.432563,-0.777156
1218.000000,-0.262823,0.543889,1.113176,1.375354,-0.520683
1219.000000,-0.814049,0.319757,1.010402,1.307880,-1.366470
1220.000000,-1.124195,0.052270,0.904300,1.263010,-1.145016
1221.000000,-1.342584,-0.340795,0.759981,1.176927,-2.170436
1222.000000,-1.682398,-0.808145,0.601942,1.093916,-2.139952
1223.000000,-2.030944,-1.238113,0.427109,1.020734,-2.015143
1224.000000,-2.291271,-1.808997,0.191966,0.913391,-2.534414
1225.000000,-2.462646,-2.161132,-0.087358,0.830814,-2.221469
1226.000000,-2.269248,-2.175493,-0.377613,0.720608,-1.565134
1227.000000,-2.069369,-2.183188,-0.708412,0.586060,-1.434372
1228.000000,-1.914072,-2.187139,-1.047930,0.444269,-1.416106
1229.000000,-1.569870,-2.038981,-1.347147,0.309613,-0.920736
1230.000000,-1.353830,-1.960868,-1.680777,0.117345,-1.154352
1231.000000,-1.276484,-1.817789,-1.946079,-0.110206,-1.190488
1232.000000,-1.068963,-1.608339,-2.058383,-0.318963,-0.436955
1233.000000,-0.951468,-1.477643,-2.099760,-0.607644,-0.842514
1234.000000,-0.871492,-1.267285,-2.092993,-0.903392,-0.527732
1235.000000,-0.666721,-1.053887,-1.974764,-1.212358,-0.149705
1236.000000,-0.416357,-0.891934,-1.780759,-1.510032,0.017407
1237.000000,-0.222918,-0.691736,-1.612050,-1.703318,0.542533
1238.000000,0.206259,-0.421846,-1.440995,-1.721955,1.193765
1239.000000,0.465423,-0.260678,-1.290414,-1.749780,0.623461
1240.000000,0.734270,-0.020167,-1.149099,-1.733897,1.056303
1241.000000,1.136487,0.326304,-0.920077,-1.618389,1.823425
1242.000000,1.298658,0.530303,-0.736935,-1.566515,1.223745
1243.000000,1.354676,0.829405,-0.546310,-1.457837,1.411325
1244.000000,1.480415,1.068041,-0.325301,-1.418569,1.079545
