0.000000,5.385165,5.385165,5.385165,5.385165,1.690901
1.000000,3.750292,3.742083,3.747465,3.744774,1.725184
2.000000,3.019911,3.006330,3.009715,3.006921,2.088982
3.000000,2.589208,2.556646,2.562882,2.558905,1.941739
4.000000,2.276516,2.242268,2.251802,2.245979,1.231095
5.000000,2.034514,2.008000,2.018122,2.012309,1.302620
6.000000,1.846821,1.826616,1.833457,1.828805,1.674360
7.000000,1.686319,1.676409,1.679665,1.676889,1.429188
8.000000,1.547315,1.552553,1.550685,1.547198,1.035176
9.000000,1.434453,1.442712,1.439202,1.435341,1.108568
10.000000,1.334417,1.342114,1.339831,1.337242,1.127251
11.000000,1.242720,1.252628,1.249386,1.250004,1.286899
12.000000,1.163400,1.170450,1.169308,1.170699,1.446742
13.000000,1.092834,1.094576,1.094396,1.098215,1.262448
14.000000,1.021109,1.024677,1.024482,1.030913,0.601115
15.000000,0.954145,0.959117,0.960101,0.968165,0.643732
16.000000,0.889896,0.895658,0.900710,0.908872,0.707228
17.000000,0.823189,0.834485,0.843534,0.851133,0.203676
18.000000,0.768716,0.781799,0.793545,0.798720,1.364095
19.000000,0.719743,0.729374,0.743289,0.747823,1.046710
20.000000,0.666962,0.675819,0.691150,0.696764,0.313390
21.000000,0.626659,0.628377,0.642938,0.647371,2.007173
22.000000,0.586431,0.577884,0.592900,0.598948,1.261840
23.000000,0.542373,0.530990,0.544451,0.550740,1.830061
24.000000,0.504587,0.489243,0.498705,0.503692,1.990254
25.000000,0.474152,0.447259,0.452277,0.457056,1.843518
26.000000,0.446412,0.413804,0.408031,0.414147,2.796688
27.000000,0.435152,0.388569,0.365692,0.373026,2.472940
28.000000,0.454545,0.378493,0.337690,0.349568,2.553331
29.000000,2.599898,2.481561,1.895945,1.861529,2.195850
30.000000,2.556064,2.537423,1.961034,1.868052,1.907155
31.000000,2.072098,2.294893,1.907847,1.812473,0.546626
32.000000,1.788833,2.219365,1.888990,1.770744,1.174306
33.000000,1.230826,1.970332,1.786508,1.677556,-0.108580
34.000000,0.518360,1.623130,1.657999,1.577424,-1.175950
35.000000,-0.076139,1.358954,1.564712,1.499041,-0.775001
36.000000,-0.621052,0.839219,1.388119,1.352722,-1.778239
37.000000,-1.167293,0.386189,1.291632,1.247828,-1.204618
38.000000,-1.182110,0.039085,1.216922,1.217909,-0.211106
39.000000,-1.050309,-0.338359,1.130861,1.165090,-0.584381
40.000000,-1.184284,-0.814455,1.013714,1.065739,-1.348003
41.000000,-1.152875,-1.137696,0.770515,0.934912,-1.592138
42.000000,-1.045575,-1.396165,0.644261,0.843427,-0.744037
43.000000,-1.096477,-1.425758,0.496479,0.774827,-0.481527
44.000000,-0.947835,-1.242560,0.377035,0.782582,0.041223
45.000000,-0.571985,-1.081963,0.284715,0.812890,0.324847
46.000000,-0.136869,-0.794847,0.056233,0.841337,0.288794
47.000000,0.187719,-0.536020,-0.145490,0.937714,0.644846
48.000000,0.434787,-0.427948,-0.401257,0.967502,0.556517
49.000000,0.675083,-0.188691,-0.562487,1.072109,1.050323
50.000000,0.740670,0.100656,-0.796575,1.187932,0.601843
51.000000,0.711180,0.375445,-0.906438,1.165242,0.171156
52.000000,0.490966,0.449728,-1.229889,1.143194,-0.296151
53.000000,0.227687,0.440304,-1.392479,1.040561,-0.565051
54.000000,-0.299115,0.250031,-1.464173,0.795896,-1.150062
55.000000,-0.631227,0.068828,-1.511855,0.545177,-0.800074
56.000000,-0.905831,-0.140592,-1.369078,-0.116004,-1.027863
57.000000,-0.744956,-0.174914,-1.019160,-0.655778,0.435277
58.000000,-0.563918,-0.219998,-0.903600,-1.402584,0.307864
59.000000,-0.222285,-0.348264,-0.718530,-1.968803,0.349683
60.000000,0.116920,-0.385347,-0.347729,-2.233737,0.602716
61.000000,0.629181,-0.325791,0.130565,-2.034281,0.800631
62.000000,0.493608,-0.328337,0.267739,-2.199294,-0.231726
63.000000,0.056275,-0.462328,0.147260,-2.244110,-1.380661
64.000000,-0.236277,-0.353558,0.015835,-1.966079,-0.683270
65.000000,-0.379309,-0.159706,-0.050095,-1.699827,0.097274
66.000000,-0.458599,0.219572,-0.021806,-1.203373,0.561189
67.000000,-0.235740,0.234905,-0.076390,-0.838836,0.660871
68.000000,0.289082,0.254572,-0.149925,-0.715508,0.492734
69.000000,0.177147,-0.054730,-0.823431,-0.767802,-1.156125
70.000000,-1.050414,-1.013127,-2.138244,-1.111274,-3.428147
71.000000,-2.003438,-1.734970,-2.729956,-1.194637,-2.310137
72.000000,-2.975737,-2.437980,-3.158959,-1.631766,-2.972084
73.000000,-3.321754,-2.707623,-3.195125,-1.980621,-2.453953
74.000000,-3.248927,-2.944417,-3.104246,-2.351955,-2.472627
75.000000,-2.710523,-2.947698,-2.925132,-2.498001,-1.704680
76.000000,-2.432355,-2.879839,-2.717983,-2.538602,-1.466605
77.000000,-1.963418,-2.708956,-2.609853,-2.499611,-0.854019
78.000000,-1.539197,-2.509976,-2.442107,-2.402252,-0.440792
79.000000,-1.206723,-2.323053,-2.367460,-2.425947,-0.911238
80.000000,-0.905552,-1.940918,-2.244200,-2.347716,-0.308978
81.000000,-0.670101,-1.725418,-2.166515,-2.266660,-0.419315
82.000000,-0.666059,-1.500520,-2.083438,-2.211433,-0.844040
83.000000,-0.713037,-1.296316,-1.937266,-2.127137,-0.626591
84.000000,-0.441813,-0.960472,-1.775108,-1.936418,0.271916
85.000000,-0.213430,-0.659233,-1.641055,-1.760255,0.691232
86.000000,0.489077,-0.127430,-1.387658,-1.416602,2.352112
87.000000,1.349037,0.391413,-1.132799,-1.157140,2.461736
88.000000,1.950447,0.805517,-0.923554,-0.935269,1.982780
89.000000,2.154051,1.199143,-0.695479,-0.768494,1.505090
90.000000,2.225371,1.477864,-0.323041,-0.614098,1.449067
91.000000,2.078427,1.793973,0.062296,-0.411044,1.777898
92.000000,1.826413,2.032069,0.512425,-0.188924,1.401898
93.000000,1.616977,2.138609,0.932226,0.071338,1.127330
94.000000,1.558236,2.155414,1.415408,0.338545,1.313037
95.000000,1.509168,2.122432,1.792412,0.571886,1.284976
96.000000,1.350129,1.920256,2.058596,0.757346,1.070927
97.000000,1.177143,1.669688,2.143190,0.870958,0.636488
98.000000,1.076584,1.492909,2.163023,1.015124,0.679007
99.000000,0.917960,1.364657,2.174989,1.250544,0.578826
100.000000,0.758956,1.246237,2.111784,1.657681,0.563839
101.000000,0.679949,1.116798,2.069370,1.970072,0.727973
102.000000,0.678785,1.021244,2.038770,2.255770,0.656728
103.000000,0.568013,0.900807,1.950339,2.331943,0.129561
104.000000,0.541966,0.794438,1.853395,2.403664,0.444098
105.000000,0.520039,0.691607,1.752641,2.370464,0.451098
106.000000,0.336314,0.555671,1.539249,2.260587,-0.196178
107.000000,0.211504,0.501469,1.355215,2.153474,0.106500
108.000000,0.275400,0.470547,1.229264,2.062987,0.418487
109.000000,0.210210,0.430666,1.129397,2.005087,0.159656
110.000000,0.024552,0.339958,1.012920,1.898751,-0.406325
111.000000,0.002171,0.217462,0.879087,1.825874,-0.385419
112.000000,0.047262,0.161562,0.808380,1.827686,0.398514
113.000000,-0.105563,0.146575,0.739112,1.807535,-0.161035
114.000000,-0.128399,0.104365,0.666449,1.765314,0.302490
115.000000,0.207330,0.100687,0.610012,1.728045,0.937420
116.000000,0.770124,0.285529,0.577626,1.607139,1.189037
117.000000,0.452011,0.229298,0.529385,1.434310,-0.749807
118.000000,0.262731,0.017415,0.464066,1.289782,-0.965602
119.000000,-0.435548,-0.364376,0.350928,1.151429,-2.129622
120.000000,-0.988536,-0.406111,0.268362,1.049338,-0.850468
121.000000,-1.419258,-0.295682,0.170763,0.936666,-0.042157
122.000000,-1.347893,-0.479554,0.033956,0.839327,-0.393990
123.000000,-1.103367,-0.448467,0.005458,0.768145,-0.036802
124.000000,0.101960,-0.235937,0.030987,0.717707,1.751994
125.000000,1.440392,0.099227,0.198401,0.697444,2.735325
126.000000,2.457603,0.498006,0.663152,0.702773,2.535216
127.000000,3.276497,1.709389,1.243741,0.798288,2.827364
128.000000,3.390257,2.698285,1.694491,0.893729,2.276190
129.000000,3.220686,3.502230,2.264235,1.065053,2.586434
130.000000,2.922981,3.515153,2.729749,1.258752,2.275483
131.000000,2.753209,3.343220,2.936603,1.471106,2.275120
132.000000,2.567268,3.212727,2.891923,1.720779,2.231410
133.000000,2.400308,3.010095,2.829223,2.020947,1.808141
134.000000,2.213668,2.779658,2.737754,2.228217,1.823514
135.000000,2.108909,2.576841,2.637386,2.382339,1.866761
136.000000,2.018570,2.439887,2.537873,2.556783,1.890118
137.000000,1.959791,2.316505,2.546530,2.628020,1.963102
138.000000,1.963300,2.237989,2.536054,2.611489,1.888775
139.000000,1.904414,2.112262,2.524297,2.560201,1.615856
140.000000,1.691901,1.936173,2.395226,2.467615,0.877342
141.000000,1.571850,1.826080,2.306866,2.411317,1.285016
142.000000,1.374003,1.691025,2.219411,2.284396,0.973107
143.000000,1.145420,1.578048,2.125408,2.181158,0.762402
144.000000,0.939028,1.455671,2.004352,2.068953,0.620702
145.000000,0.919888,1.349197,1.893569,1.970587,0.781031
146.000000,1.000280,1.334148,1.857902,1.941624,1.645509
147.000000,1.150436,1.310002,1.813461,1.959082,1.660782
148.000000,1.350342,1.294681,1.789143,1.978027,1.706193
149.000000,1.525716,1.282375,1.739541,2.000549,1.514929
150.000000,1.735982,1.385785,1.721226,2.011924,1.865506
151.000000,1.822148,1.468343,1.714465,2.019131,2.070085
152.000000,1.893184,1.576724,1.703322,2.026355,1.996582
153.000000,1.937640,1.694101,1.703251,2.022019,1.897276
154.000000,1.982348,1.805123,1.693042,1.989479,1.709686
155.000000,1.877499,1.862688,1.662315,1.935000,1.329826
156.000000,1.718798,1.831443,1.628869,1.888449,1.288682
157.000000,1.521433,1.775165,1.579372,1.828955,1.034208
158.000000,1.243008,1.667104,1.510704,1.766408,0.502821
159.000000,1.052772,1.608398,1.472425,1.709556,0.794505
160.000000,0.831715,1.457113,1.453267,1.645128,0.234542
161.000000,0.695896,1.314776,1.431481,1.596725,0.669669
162.000000,0.687520,1.208777,1.446121,1.560840,1.033554
163.000000,0.810668,1.114542,1.475945,1.538887,1.066761
164.000000,0.823910,1.015939,1.505806,1.510669,0.842504
165.000000,1.081825,1.020936,1.553741,1.497582,1.397756
166.000000,1.127290,0.972488,1.523886,1.466561,0.848688
167.000000,1.076377,0.948447,1.488091,1.429485,0.785045
168.000000,1.063554,1.017210,1.456852,1.400420,1.006092
169.000000,1.172922,1.087704,1.455130,1.392576,1.339146
170.000000,1.182746,1.241047,1.435024,1.420709,1.463253
171.000000,1.304730,1.335384,1.395806,1.430672,1.428846
172.000000,1.505566,1.420971,1.377363,1.465724,1.742152
173.000000,1.646589,1.491645,1.361418,1.508291,1.668876
174.000000,1.879937,1.669678,1.398153,1.580897,2.437229
175.000000,2.111681,1.792198,1.471291,1.651932,2.531553
176.000000,2.239048,1.924897,1.522762,1.669890,1.956572
177.000000,2.216584,2.032426,1.580188,1.678712,1.663838
178.000000,2.244056,2.140801,1.691844,1.694057,1.922192
179.000000,2.238562,2.274949,1.820024,1.741881,2.459508
180.000000,2.122568,2.311607,1.948239,1.754051,2.004620
181.000000,2.006137,2.269817,1.996271,1.731387,1.524928
182.000000,1.925340,2.171000,2.001107,1.703857,1.411363
183.000000,1.893745,2.133198,2.023737,1.697396,1.799299
184.000000,1.712561,2.004827,2.031640,1.686034,1.547825
185.000000,1.615877,1.890807,2.002957,1.691411,1.531502
186.000000,1.546471,1.797283,1.982595,1.681894,1.230122
187.000000,1.443660,1.703642,1.946907,1.669408,0.940984
188.000000,1.345685,1.638105,1.930295,1.696977,1.312928
189.000000,1.287275,1.521082,1.895800,1.707465,1.264054
190.000000,1.202305,1.428807,1.850355,1.731463,1.126864
191.000000,1.255892,1.420409,1.833100,1.752880,1.515095
192.000000,1.303458,1.388669,1.781608,1.743846,1.143037
193.000000,1.214160,1.292694,1.723068,1.722432,0.846072
194.000000,1.128011,1.220401,1.638171,1.709517,0.809350
195.000000,1.177311,1.198014,1.583221,1.698614,1.370024
196.000000,1.278519,1.274305,1.584756,1.731856,2.048622
197.000000,1.525924,1.415095,1.609569,1.775243,2.292683
198.000000,1.778212,1.486050,1.606063,1.798296,1.966152
199.000000,2.081087,1.596458,1.588848,1.819940,2.225866
200.000000,2.194443,1.693531,1.577017,1.825074,1.913284
201.000000,2.220755,1.777360,1.605221,1.841369,2.182321
202.000000,2.172844,1.894547,1.637975,1.843836,2.080228
203.000000,2.183965,2.035378,1.651507,1.848017,2.049583
204.000000,1.885668,2.027196,1.616354,1.785271,0.796521
205.000000,1.750732,2.008556,1.606463,1.739779,1.246985
206.000000,1.616521,1.949408,1.630221,1.720020,1.500786
207.000000,1.446627,1.841511,1.659417,1.700165,1.246457
208.000000,1.353440,1.807840,1.684578,1.686290,1.610210
209.000000,1.333793,1.649605,1.662161,1.622452,0.700077
210.000000,1.143107,1.487909,1.627234,1.561546,0.311136
211.000000,0.910151,1.307607,1.575745,1.523027,0.368662
212.000000,0.890447,1.213243,1.588325,1.516908,1.154486
213.000000,0.625220,1.037071,1.577346,1.472881,0.382618
214.000000,0.426411,0.938670,1.537131,1.421133,-0.270158
215.000000,0.091049,0.680668,1.419928,1.340381,-1.292469
216.000000,-0.308634,0.363679,1.262518,1.271859,-1.423040
217.000000,-0.897252,0.068754,1.095181,1.222629,-1.369719
218.000000,-1.493420,-0.401181,0.893379,1.128010,-2.115353
219.000000,-1.790619,-0.720056,0.688813,1.052509,-1.591872
220.000000,-1.829975,-0.994653,0.489831,0.984963,-1.509005
221.000000,-1.749634,-1.228689,0.269447,0.909943,-1.148601
222.000000,-1.785723,-1.613053,-0.017082,0.826415,-1.598416
223.000000,-1.677050,-1.871570,-0.353066,0.749143,-1.642306
224.000000,-1.699748,-2.027268,-0.630838,0.659801,-1.721424
225.000000,-1.628475,-1.979992,-0.945472,0.554856,-1.255151
226.000000,-1.580090,-1.883810,-1.286932,0.397594,-1.050776
227.000000,-1.458173,-1.803663,-1.595692,0.173879,-1.126030
228.000000,-1.320713,-1.641969,-1.890702,-0.074621,-1.054577
229.000000,-1.246899,-1.584071,-2.066514,-0.463166,-1.380726
230.000000,-1.294943,-1.551998,-2.155408,-0.936809,-1.481559
231.000000,-1.361520,-1.543527,-2.183486,-1.502093,-1.384508
232.000000,-1.379658,-1.476745,-2.213809,-2.018942,-1.235589
233.000000,-1.354012,-1.381876,-2.142085,-2.353376,-0.932266
234.000000,-1.300040,-1.310490,-2.055689,-2.450791,-1.128124
235.000000,-1.368709,-1.366657,-1.978256,-2.574318,-1.807670
236.000000,-1.490631,-1.460339,-1.918966,-2.630069,-1.944654
237.000000,-1.581840,-1.514205,-1.857658,-2.578545,-1.657127
238.000000,-1.800609,-1.613869,-1.792427,-2.558806,-2.016345
239.000000,-1.892983,-1.634906,-1.738588,-2.447878,-1.589716
240.000000,-1.809057,-1.627151,-1.688914,-2.327402,-1.396608
241.000000,-1.661056,-1.613151,-1.654528,-2.224897,-1.217369
242.000000,-1.580699,-1.618608,-1.606331,-2.172855,-1.231394
243.000000,-1.334498,-1.618848,-1.545765,-2.081281,-0.772361
244.000000,-1.048096,-1.552222,-1.463876,-1.962068,-0.039631
245.000000,-0.638950,-1.348018,-1.387181,-1.809564,0.692213
246.000000,-0.248030,-1.124322,-1.333975,-1.685029,0.528762
247.000000,0.217306,-0.903031,-1.273567,-1.579250,0.716430
248.000000,0.561534,-0.601007,-1.220544,-1.461086,0.650859
249.000000,0.781690,-0.295745,-1.135467,-1.365124,0.919604
250.000000,0.745821,-0.023904,-1.058291,-1.293182,0.524367
251.000000,0.783101,0.268334,-0.978870,-1.237055,0.688554
252.000000,0.636455,0.491118,-0.936580,-1.186898,0.031683
253.000000,0.484361,0.623141,-0.920065,-1.141563,-0.054770
254.000000,0.237869,0.623902,-0.892973,-1.098871,-0.165706
255.000000,0.243951,0.611387,-0.758419,-1.058647,0.571645
256.000000,0.217563,0.626525,-0.587050,-1.030462,0.599887
257.000000,0.366402,0.626070,-0.412381,-0.997517,0.689444
258.000000,0.536861,0.634846,-0.159918,-0.971671,0.671434
259.000000,0.543753,0.482829,0.023690,-0.955699,-0.212444
260.000000,0.675989,0.573156,0.346327,-0.880534,1.136557
261.000000,0.894811,0.698472,0.758687,-0.785220,1.499144
262.000000,1.056422,0.909258,1.207581,-0.693111,1.349541
263.000000,1.140932,1.082737,1.560937,-0.630764,1.036886
264.000000,1.403276,1.266989,1.783159,-0.536257,1.053828
265.000000,1.473622,1.391746,1.913453,-0.286748,1.531171
266.000000,1.309216,1.390498,1.914618,0.022088,0.871823
267.000000,0.991416,1.251184,1.744459,0.313115,-0.080563
268.000000,0.567493,1.015694,1.480559,0.676966,-1.116750
269.000000,0.399742,1.073170,1.342717,1.245611,0.274816
270.000000,-0.113289,0.875225,1.187235,1.756766,-0.634031
271.000000,-0.439321,0.672118,1.065874,2.202003,-0.229576
272.000000,-0.637797,0.438850,1.003885,2.344229,-0.716729
273.000000,-0.885431,0.073567,0.861779,2.128969,-2.189153
274.000000,-0.952295,-0.060129,0.930781,2.042627,0.660767
275.000000,-0.726961,-0.444282,0.887741,1.823962,0.210934
276.000000,0.178392,-0.347372,1.012046,1.845290,2.333260
277.000000,1.611942,0.448636,1.218618,1.922388,2.929796
278.000000,2.744710,1.630768,1.358246,1.914546,1.972679
279.000000,2.864279,2.292869,1.594646,1.882217,1.941050
280.000000,2.943174,2.888152,1.677135,1.898575,1.859582
281.000000,2.642156,3.036247,1.712643,1.898344,1.779208
282.000000,2.328427,3.126831,1.798678,1.977890,1.937971
283.000000,2.344807,3.296584,1.997171,2.092178,2.311551
284.000000,2.269632,3.049026,2.149355,2.155448,1.891236
285.000000,2.232349,2.915180,2.233421,2.163875,1.922411
286.000000,2.102310,2.609609,2.292532,2.132181,1.411153
287.000000,2.026618,2.371383,2.450094,2.133349,1.704120
288.000000,1.980260,2.316284,2.655735,2.179907,2.097180
289.000000,2.050210,2.300846,2.697872,2.281093,2.238739
290.000000,2.084201,2.282423,2.728552,2.291127,2.128175
291.000000,2.202117,2.276653,2.702115,2.284482,2.136338
292.000000,2.201782,2.227376,2.648835,2.266054,1.906840
293.000000,2.153447,2.165261,2.637489,2.273849,1.970420
294.000000,2.025453,2.104604,2.518072,2.253468,1.683218
295.000000,1.909421,2.038962,2.427876,2.204413,1.605415
296.000000,1.749272,1.989467,2.288359,2.164148,1.373533
297.000000,1.601523,1.905786,2.143264,2.143154,1.197638
298.000000,1.362007,1.757569,2.018894,2.115620,0.777124
299.000000,1.160703,1.600612,1.909898,2.044336,0.670998
300.000000,0.916352,1.431775,1.801523,1.983864,0.368546
301.000000,0.771277,1.296010,1.729743,1.939544,0.679108
302.000000,0.677009,1.190726,1.667273,1.911658,0.789354
303.000000,0.714946,1.092354,1.608079,1.917514,1.027652
304.000000,0.730510,0.994634,1.553102,1.869097,0.740738
305.000000,0.895443,0.931281,1.517509,1.850051,1.153306
306.000000,1.028130,0.904107,1.509106,1.807733,1.306091
307.000000,1.062785,0.863523,1.472930,1.742213,0.890157
308.000000,1.094481,0.903686,1.431265,1.709100,1.178681
309.000000,1.204948,0.968287,1.381976,1.681594,1.224933
310.000000,1.260257,1.100089,1.341714,1.663483,1.422265
311.000000,1.408544,1.256550,1.320525,1.666386,2.041530
312.000000,1.604629,1.381855,1.299243,1.656803,1.748240
313.000000,1.780711,1.499333,1.279783,1.642564,1.950418
314.000000,1.928437,1.652248,1.276854,1.637280,1.877369
315.000000,2.111766,1.795704,1.301358,1.643557,2.270282
316.000000,2.070472,1.874783,1.330343,1.652891,1.851462
317.000000,1.938706,1.927462,1.343959,1.632735,1.060609
318.000000,1.814196,1.966409,1.408025,1.606162,1.309902
319.000000,1.698029,1.991028,1.488209,1.572368,1.316409
320.000000,1.389337,1.937758,1.576213,1.529418,0.895977
321.000000,1.204760,1.819330,1.642548,1.487498,1.047554
322.000000,1.294572,1.780903,1.718244,1.466683,1.483937
323.000000,1.399961,1.746506,1.779753,1.449165,1.776551
324.000000,1.460935,1.696690,1.842048,1.440085,1.595694
325.000000,1.673287,1.641442,1.883922,1.448066,1.914967
326.000000,1.870304,1.663345,1.919306,1.477868,2.042698
327.000000,1.855312,1.698546,1.938775,1.498057,1.529277
328.000000,1.930962,1.790504,1.982739,1.572284,2.153281
329.000000,1.903713,1.796341,1.975611,1.625920,1.568169
330.000000,1.564071,1.681860,1.870314,1.635515,0.176644
331.000000,1.143325,1.537898,1.725618,1.614557,-0.205951
332.000000,0.911162,1.422048,1.638558,1.608191,0.273104
333.000000,0.366090,1.228436,1.513342,1.566427,-0.366485
334.000000,-0.177646,1.022545,1.381307,1.528975,-0.784673
335.000000,-0.412057,0.765988,1.227166,1.474236,-0.860310
336.000000,-0.384802,0.545193,1.144727,1.446628,-0.006805
337.000000,-0.094096,0.549763,1.199610,1.503016,1.749398
338.000000,0.504853,0.485691,1.261831,1.560703,2.054448
339.000000,0.930995,0.342003,1.252128,1.566979,0.726056
340.000000,1.436379,0.466301,1.277460,1.572856,0.903885
341.000000,1.818061,0.761833,1.323995,1.570350,1.394493
342.000000,1.850642,1.097809,1.377183,1.600115,1.863721
343.000000,1.626342,1.486634,1.376300,1.593476,1.249131
344.000000,1.606208,1.841511,1.355370,1.566147,0.731471
345.000000,1.504525,2.119275,1.296903,1.510083,0.606169
346.000000,1.268091,2.169817,1.210195,1.467586,0.492260
347.000000,0.867207,1.891609,1.153245,1.453087,0.282665
348.000000,0.835964,1.719214,1.085459,1.466567,1.136557
349.000000,0.873154,1.732776,1.056383,1.468668,0.878900
350.000000,0.962969,1.725522,1.200074,1.494501,0.936542
351.000000,1.151477,1.684978,1.425086,1.527894,1.176761
352.000000,1.413597,1.577967,1.616942,1.547291,1.275799
353.000000,1.564565,1.659576,1.928436,1.576357,1.722839
354.000000,1.650493,1.744407,2.193838,1.593697,1.284599
355.000000,1.647035,1.799885,2.370276,1.577355,1.064097
356.000000,1.683075,1.918530,2.434028,1.567155,1.454692
357.000000,1.648385,2.000101,2.291957,1.577965,1.264255
358.000000,1.627476,2.004890,2.166276,1.556124,1.700804
359.000000,1.776517,2.082918,2.184369,1.594403,1.971253
360.000000,1.910735,2.118595,2.171329,1.722769,1.856347
361.000000,1.866344,2.066273,2.094177,1.834971,1.509400
362.000000,1.958950,2.071998,2.037905,1.932582,1.935755
363.000000,2.004795,2.046177,2.040884,2.056681,2.041854
364.000000,2.117839,2.124700,2.117001,2.205300,2.494132
365.000000,2.214575,2.191483,2.175828,2.309791,2.328361
366.000000,2.249867,2.158044,2.184530,2.314261,1.753159
367.000000,2.216708,2.162845,2.203754,2.249508,1.876914
368.000000,2.218331,2.179654,2.200157,2.199217,2.185264
369.000000,2.186313,2.209546,2.226820,2.218611,2.385166
370.000000,2.115680,2.202537,2.216769,2.203774,2.031911
371.000000,1.937342,2.102454,2.120228,2.110771,1.021098
372.000000,1.862598,2.034402,2.070732,2.045966,1.530142
373.000000,1.691649,1.937981,1.996460,1.994904,1.308838
374.000000,1.479552,1.812232,1.948368,1.965116,1.303312
375.000000,1.354863,1.723729,1.923133,1.949339,1.412512
376.000000,1.400736,1.672960,1.881397,1.930646,1.271011
377.000000,1.321827,1.602066,1.845599,1.911435,1.143285
378.000000,1.296015,1.508613,1.805071,1.874516,1.178158
379.000000,1.218515,1.364043,1.745554,1.835779,0.902640
380.000000,1.116142,1.250203,1.695238,1.800030,0.903780
381.000000,1.056428,1.247772,1.666382,1.765793,0.980845
382.000000,0.941796,1.154735,1.602435,1.717736,0.546315
383.000000,0.742022,1.052765,1.520880,1.652518,0.164631
384.000000,0.689383,0.991840,1.443836,1.620717,0.651217
385.000000,0.504559,0.857627,1.348830,1.579420,-0.055569
386.000000,0.482869,0.821559,1.322893,1.565169,1.023493
387.000000,0.466320,0.755354,1.271201,1.545007,0.467862
388.000000,0.577091,0.688688,1.205573,1.522916,0.604799
389.000000,0.567257,0.655254,1.119418,1.496293,0.602138
390.000000,0.788648,0.628475,1.050617,1.476738,0.739277
391.000000,0.659597,0.561707,1.038616,1.464144,0.404528
392.000000,0.710766,0.567616,0.993487,1.440381,0.505876
393.000000,0.534307,0.582320,0.940835,1.399333,-0.536270
394.000000,0.027592,0.418473,0.858887,1.324380,-1.551700
395.000000,-0.590936,0.415969,0.771451,1.261373,-0.942450
396.000000,-1.409668,0.088286,0.674040,1.213599,-1.506685
397.000000,-3.195029,-0.638671,0.481965,1.112661,-3.612375
398.000000,-3.776891,-1.850222,0.211280,0.971883,-3.362187
399.000000,-3.222485,-2.594776,0.025720,0.847133,-1.476459
400.000000,-3.215643,-3.210316,-0.300391,0.682169,-2.548168
401.000000,-3.211038,-3.406970,-0.785768,0.541750,-2.829433
402.000000,-2.906797,-3.352759,-1.298896,0.331468,-2.577274
403.000000,-2.504953,-3.083030,-1.710281,0.134541,-1.835456
404.000000,-2.405298,-2.802703,-2.113904,-0.089797,-1.545132
405.000000,-2.233065,-2.680883,-2.332884,-0.405650,-1.828331
406.000000,-2.015253,-2.563040,-2.534855,-0.765601,-1.753625
407.000000,-1.933370,-2.411078,-2.606967,-1.204311,-2.129750
408.000000,-1.843863,-2.192930,-2.546674,-1.590573,-1.477360
409.000000,-1.821778,-2.137384,-2.482160,-1.903751,-1.511190
410.000000,-1.655713,-1.965710,-2.382682,-2.083733,-1.060191
411.000000,-1.488443,-1.774305,-2.276443,-2.175676,-0.937293
412.000000,-1.235512,-1.602840,-2.191444,-2.167981,-0.896861
413.000000,-1.145555,-1.519066,-2.109087,-2.122494,-1.044047
414.000000,-0.955204,-1.418645,-1.989312,-2.065543,-0.602531
415.000000,-0.781742,-1.255483,-1.880601,-1.941479,-0.223813
416.000000,-0.664099,-1.118641,-1.794040,-1.900686,-0.361889
417.000000,-0.554756,-0.937414,-1.664571,-1.837909,-0.368758
418.000000,-0.320924,-0.780923,-1.513382,-1.766901,0.075288
419.000000,-0.283056,-0.667180,-1.466581,-1.736180,-0.463834
420.000000,-0.320373,-0.596351,-1.380171,-1.713224,-0.400772
421.000000,-0.502611,-0.619907,-1.321912,-1.725826,-1.328542
422.000000,-0.657079,-0.627231,-1.254879,-1.732858,-1.124431
423.000000,-1.199186,-0.726409,-1.277554,-1.768452,-2.336030
424.000000,-1.636100,-0.894476,-1.312360,-1.782326,-2.193001
425.000000,-2.037091,-1.113888,-1.315102,-1.797063,-1.886799
426.000000,-2.131355,-1.296838,-1.302234,-1.794585,-1.473571
427.000000,-2.339323,-1.562221,-1.282980,-1.766472,-1.972451
428.000000,-2.138412,-1.868222,-1.293699,-1.719555,-1.600211
429.000000,-1.709076,-1.953782,-1.242292,-1.685331,-0.306887
430.000000,-1.345386,-2.031364,-1.227004,-1.619877,-0.277850
431.000000,-1.093014,-1.945054,-1.224003,-1.543685,-0.341493
432.000000,-0.751853,-1.887195,-1.236200,-1.475494,-0.566510
433.000000,-0.714681,-1.762005,-1.295246,-1.467327,-1.516539
434.000000,-1.060792,-1.680283,-1.423338,-1.480294,-1.718664
435.000000,-1.257595,-1.560981,-1.567976,-1.458075,-1.138984
436.000000,-1.553345,-1.582593,-1.736512,-1.457135,-1.658281
437.000000,-1.628768,-1.437702,-1.845199,-1.405515,-1.065667
438.000000,-1.492941,-1.337993,-1.975226,-1.386582,-1.004587
439.000000,-1.518079,-1.532962,-2.088431,-1.399224,-1.815639
440.000000,-1.765234,-1.777924,-2.214692,-1.463971,-2.228454
441.000000,-1.824870,-1.942272,-2.214367,-1.525125,-1.951065
442.000000,-1.978687,-2.050305,-2.214697,-1.587991,-1.893428
443.000000,-2.156855,-2.077633,-2.145867,-1.653924,-2.051131
444.000000,-2.208435,-2.102044,-2.107630,-1.755793,-2.169048
445.000000,-2.100092,-2.119413,-2.061428,-1.854883,-1.800911
446.000000,-2.136146,-2.144395,-2.080474,-1.960393,-2.180566
447.000000,-2.224561,-2.246591,-2.092253,-2.068481,-2.364856
448.000000,-2.459589,-2.444213,-2.200641,-2.239787,-3.051446
449.000000,-2.551325,-2.502931,-2.308990,-2.330429,-2.616686
450.000000,-2.486980,-2.406300,-2.310364,-2.335498,-1.740824
451.000000,-2.250353,-2.271023,-2.254390,-2.258385,-1.145508
452.000000,-1.999510,-2.154292,-2.195782,-2.191872,-1.079994
453.000000,-1.551891,-2.003880,-2.091408,-2.076728,-0.774322
454.000000,-1.050522,-1.795390,-1.955201,-1.945629,-0.207769
455.000000,-0.854402,-1.699776,-1.898881,-1.874981,-0.808894
456.000000,-0.727240,-1.549247,-1.816374,-1.808842,-0.542100
457.000000,-0.648576,-1.401176,-1.775265,-1.746244,-0.710160
458.000000,-0.748849,-1.225732,-1.774912,-1.726965,-1.237342
459.000000,-0.850506,-1.012374,-1.715656,-1.709503,-0.674513
460.000000,-0.757019,-0.858666,-1.628686,-1.679697,-0.340922
461.000000,-0.745677,-0.784030,-1.565682,-1.659584,-0.453305
462.000000,-0.583420,-0.657365,-1.479696,-1.616096,0.157594
463.000000,-0.336615,-0.594913,-1.407014,-1.571433,-0.143967
464.000000,-0.332805,-0.660065,-1.358042,-1.548902,-0.736254
465.000000,-0.140764,-0.523489,-1.264450,-1.495759,0.615200
466.000000,0.249302,-0.346869,-1.119011,-1.413828,1.311123
467.000000,0.557505,-0.110395,-0.948944,-1.350552,1.514540
468.000000,0.938026,0.226015,-0.719344,-1.304668,1.350129
469.000000,1.520903,0.528533,-0.478723,-1.239987,1.420935
470.000000,1.662691,0.777628,-0.297799,-1.172964,1.103487
471.000000,1.517941,1.018027,-0.172583,-1.129433,0.684600
472.000000,1.447466,1.243145,0.001131,-1.064284,1.245729
473.000000,1.299328,1.455019,0.138916,-1.007075,0.772220
474.000000,1.201098,1.786480,0.259456,-0.921341,1.049498
475.000000,1.207200,1.859412,0.496223,-0.838211,1.155292
476.000000,1.347998,1.817018,0.765505,-0.701462,1.324235
477.000000,1.449141,1.787434,1.160118,-0.482083,1.704462
478.000000,1.506725,1.682925,1.584110,-0.161605,1.186080
479.000000,1.363444,1.488361,1.765821,0.153220,0.448264
480.000000,1.072832,1.274478,1.756802,0.363157,-0.380231
481.000000,0.270673,0.906355,1.549661,0.361439,-2.347037
482.000000,-0.769695,0.490705,1.284842,0.360679,-2.046663
483.000000,-1.475804,0.232367,1.152741,0.394178,-1.200306
484.000000,-1.750305,-0.029708,1.136681,0.380997,-0.771571
485.000000,-1.718518,-0.292396,1.001620,0.520913,-0.476109
486.000000,-1.384600,-0.706678,0.750272,0.543733,-1.013202
487.000000,-1.266255,-1.324350,0.430226,0.506121,-1.567126
488.000000,-1.294008,-1.759514,0.158507,0.624266,-1.351057
489.000000,-1.545281,-2.059428,-0.186963,0.479941,-1.800570
490.000000,-1.799528,-2.160379,-0.510193,0.235456,-1.654508
491.000000,-1.909728,-2.009794,-0.815074,-0.011454,-1.644063
492.000000,-1.902498,-1.916215,-1.213365,-0.437112,-1.703263
493.000000,-1.905113,-1.910402,-1.547341,-0.770008,-1.555258
494.000000,-1.578320,-1.798029,-1.751575,-0.724154,-0.466767
495.000000,-1.244570,-1.689749,-1.907342,-0.889267,-0.190014
496.000000,-0.809692,-1.468849,-1.970479,-1.059746,0.341666
497.000000,-0.348396,-1.205668,-2.030328,-1.244392,0.388679
498.000000,0.161745,-0.952712,-1.951820,-1.322757,0.685530
499.000000,0.328223,-0.714066,-1.848031,-1.495354,0.237909
500.000000,0.431156,-0.491498,-1.701698,-1.600229,0.219200
501.000000,0.433764,-0.246154,-1.423000,-1.605723,0.340898
502.000000,0.355719,-0.015895,-1.219745,-1.738644,0.030380
503.000000,0.177841,0.197955,-1.107652,-1.793119,-0.077834
504.000000,0.123623,0.272998,-1.030035,-1.850953,0.000380
505.000000,-0.200304,0.158770,-1.084648,-2.052701,-1.191264
506.000000,-0.681768,-0.109604,-1.136903,-2.255731,-1.653653
507.000000,-1.115195,-0.410939,-1.148102,-2.420185,-1.733227
508.000000,-1.362190,-0.676853,-1.122187,-2.399728,-0.908471
509.000000,-1.606534,-0.868417,-1.047341,-2.317121,-0.703530
510.000000,-1.697429,-1.190453,-1.041373,-2.258517,-1.410946
511.000000,-1.549693,-1.521210,-1.017532,-2.068887,-1.227191
512.000000,-1.188654,-1.653364,-0.912505,-1.878315,-0.514008
513.000000,-1.135759,-1.790414,-0.841085,-1.791593,-0.797206
514.000000,-0.899854,-1.761788,-0.825585,-1.678956,0.223282
515.000000,-0.561234,-1.547408,-0.888863,-1.620611,-0.006342
516.000000,-0.188130,-1.184738,-1.020177,-1.513945,0.324678
517.000000,-0.003209,-0.819275,-1.190992,-1.380029,0.256191
518.000000,0.277577,-0.598456,-1.442745,-1.270488,0.357582
519.000000,0.396186,-0.356430,-1.552839,-1.100337,0.725722
520.000000,0.599046,0.027301,-1.626486,-0.924608,0.849933
521.000000,0.406116,0.154524,-1.991518,-0.835185,-0.498785
522.000000,0.275004,0.190868,-2.141791,-0.709448,-0.317654
523.000000,0.116907,0.278430,-2.167207,-0.583412,-0.326121
524.000000,0.094423,0.348948,-1.984004,-0.502181,0.665383
525.000000,0.291034,0.630007,-1.297530,-0.362127,1.646871
526.000000,0.744520,0.796276,-0.554362,-0.303799,1.333994
527.000000,1.195197,1.005957,0.282859,-0.218373,1.575139
528.000000,1.604739,1.165880,0.863773,-0.173973,1.485346
529.000000,1.776286,1.259673,1.357173,-0.052045,1.479816
530.000000,1.677484,1.299595,1.878609,0.069915,1.264698
531.000000,1.532560,1.457638,2.158591,0.122142,0.737558
532.000000,1.422787,1.639033,2.314453,0.313756,1.126587
533.000000,1.441674,1.875379,2.520264,0.683768,1.572671
534.000000,1.414875,1.933073,2.477678,1.129371,1.384749
535.000000,1.339580,1.794205,2.391772,1.863866,1.026569
536.000000,1.282042,1.634446,2.221239,2.448216,0.607865
537.000000,1.004114,1.367251,2.011963,2.573561,-0.157357
538.000000,0.672909,1.161860,1.853967,2.469901,0.029641
539.000000,0.343793,0.957822,1.677057,2.330585,-0.102006
540.000000,0.148616,0.828396,1.545586,2.365151,0.246606
541.000000,-0.158390,0.676447,1.479158,2.264052,-0.784998
542.000000,-0.328579,0.459105,1.391788,2.087254,-0.977157
543.000000,-0.641051,0.133487,1.296351,1.966785,-1.307475
544.000000,-0.848919,-0.162323,1.161165,1.800820,-0.820244
545.000000,-1.151578,-0.442388,0.954146,1.699615,-0.801535
546.000000,-1.239524,-0.718796,0.764264,1.556162,-1.117559
547.000000,-1.353459,-0.924194,0.532484,1.405255,-1.440423
548.000000,-1.437184,-1.209023,0.288964,1.230652,-1.642963
549.000000,-1.710385,-1.525504,-0.003419,0.967590,-1.962113
550.000000,-1.879506,-1.806519,-0.280224,0.697835,-1.687243
551.000000,-2.000010,-1.925417,-0.547645,0.564578,-1.852651
552.000000,-2.037324,-1.996977,-0.897656,0.390152,-1.825411
553.000000,-1.868362,-1.911358,-1.271861,0.299865,-1.088548
554.000000,-1.701916,-1.910791,-1.684785,0.031506,-1.305941
555.000000,-1.357060,-1.756545,-1.885742,-0.241979,-0.203044
556.000000,-1.056277,-1.625899,-1.995122,-0.528175,-0.476245
557.000000,-0.687781,-1.437675,-1.918389,-0.815758,-0.097427
558.000000,-0.571941,-1.296990,-1.886810,-1.164026,-0.546314
559.000000,-0.396301,-1.126763,-1.827787,-1.504331,-0.544131
560.000000,-0.390834,-0.946490,-1.762239,-1.728350,-0.135516
561.000000,-0.218871,-0.703325,-1.595062,-1.788985,0.354963
562.000000,-0.175996,-0.480028,-1.457092,-1.914585,0.138615
563.000000,0.111769,-0.282053,-1.283146,-2.000807,0.824318
564.000000,0.407089,-0.045048,-1.166888,-2.036364,0.795783
565.000000,0.607706,0.043247,-1.074307,-2.000691,0.718510
566.000000,0.860817,0.254407,-0.933908,-1.856316,1.488737
567.000000,1.405516,0.530314,-0.724662,-1.588769,2.272248
568.000000,1.680288,0.880494,-0.511151,-1.401734,1.874967
569.000000,1.878665,1.235096,-0.260272,-1.234233,1.671963
570.000000,2.176212,1.610025,0.037331,-1.075473,2.181066
571.000000,2.288291,1.909820,0.406025,-0.816771,2.220336
572.000000,2.059336,2.067141,0.758788,-0.609633,1.441744
573.000000,2.018780,2.133873,1.116239,-0.322537,1.845461
574.000000,2.073727,2.210843,1.561592,-0.015906,2.071088
575.000000,2.002882,2.244293,1.841988,0.311331,1.882869
576.000000,1.850447,2.164335,2.064903,0.669502,1.538460
577.000000,1.845557,2.037232,2.177984,1.106130,1.541473
578.000000,1.692123,1.911744,2.226450,1.522611,1.164051
579.000000,1.545353,1.841737,2.241068,1.962705,1.359276
580.000000,1.447620,1.751600,2.201368,2.268933,1.412894
581.000000,1.330088,1.613452,2.088301,2.426351,0.959788
582.000000,1.237747,1.563436,2.011713,2.507275,1.090908
583.000000,1.271830,1.504255,1.932190,2.486866,1.328871
584.000000,1.322272,1.451509,1.891063,2.475439,1.631315
585.000000,1.295584,1.386040,1.847570,2.345419,1.297956
586.000000,1.352663,1.349535,1.785662,2.248346,1.208805
587.000000,1.390889,1.318531,1.707404,2.148992,1.271837
588.000000,1.084003,1.192887,1.580211,2.014730,-0.288505
589.000000,0.733079,1.057496,1.483460,1.913929,-0.196145
590.000000,0.314031,0.857896,1.353485,1.792262,-0.854046
591.000000,-0.140268,0.702171,1.223655,1.671603,-0.913244
592.000000,-0.837386,0.448894,1.104589,1.555527,-1.716054
593.000000,-1.031804,0.201593,0.992582,1.459467,-1.027693
594.000000,-1.413814,-0.196166,0.829791,1.359222,-1.770640
595.000000,-1.714250,-0.648211,0.649867,1.266570,-2.094305
596.000000,-1.987559,-1.153716,0.470679,1.160247,-2.063992
597.000000,-1.908813,-1.623089,0.293323,1.049530,-1.456615
598.000000,-2.059634,-1.879523,0.087101,0.930897,-1.867986
599.000000,-2.002590,-2.073453,-0.169987,0.821931,-1.676686
600.000000,-1.795608,-2.070096,-0.451040,0.703336,-1.248338
601.000000,-1.671516,-2.073724,-0.753136,0.545030,-1.521792
602.000000,-1.714148,-2.015038,-1.130248,0.391020,-1.718667
603.000000,-1.654871,-2.010534,-1.542438,0.184269,-1.617225
604.000000,-1.599125,-1.916215,-1.915613,-0.077555,-1.457353
605.000000,-1.627686,-1.812678,-2.171000,-0.389525,-1.468599
606.000000,-1.579278,-1.710961,-2.306677,-0.726691,-1.346231
607.000000,-1.429448,-1.631622,-2.340291,-1.089085,-1.006014
608.000000,-1.329058,-1.539808,-2.233115,-1.459606,-1.130464
609.000000,-1.329669,-1.510074,-2.167769,-1.873362,-1.453519
610.000000,-1.191139,-1.449121,-2.024461,-2.129099,-0.793278
611.000000,-1.096835,-1.377627,-1.913465,-2.240442,-0.885188
612.000000,-1.063008,-1.286450,-1.785653,-2.273531,-0.832719
613.000000,-0.923703,-1.166127,-1.685562,-2.242607,-0.414649
614.000000,-0.684891,-1.053805,-1.567210,-2.201337,-0.283075
615.000000,-0.643621,-0.967658,-1.470960,-2.152550,-0.602937
616.000000,-0.589708,-0.898693,-1.389811,-2.102494,-0.690644
617.000000,-0.475338,-0.840049,-1.328108,-2.046388,-0.272424
618.000000,-0.545587,-0.794478,-1.266744,-1.937201,-0.809420
619.000000,-0.693022,-0.700352,-1.220752,-1.859049,-0.928732
620.000000,-0.826347,-0.715074,-1.207608,-1.778892,-1.256323
621.000000,-0.985704,-0.725724,-1.181094,-1.714549,-1.380627
622.000000,-1.161034,-0.711274,-1.127470,-1.624505,-0.765733
623.000000,-1.282021,-0.810790,-1.086048,-1.579642,-1.161677
624.000000,-1.488560,-1.006357,-1.065542,-1.527070,-1.714400
625.000000,-1.506682,-1.133497,-1.030575,-1.465742,-1.235926
626.000000,-1.810808,-1.403065,-1.041596,-1.434703,-2.550740
627.000000,-2.000421,-1.634341,-1.053207,-1.409951,-1.388454
628.000000,-2.341700,-1.929976,-1.099321,-1.393860,-2.582737
629.000000,-2.461168,-2.163708,-1.114553,-1.387693,-2.346498
630.000000,-2.687768,-2.360191,-1.226629,-1.410638,-2.516049
631.000000,-2.348765,-2.325945,-1.291259,-1.393248,-1.242825
632.000000,-2.529436,-2.521124,-1.451178,-1.399699,-2.462164
633.000000,-2.303339,-2.503495,-1.647793,-1.395024,-1.759309
634.000000,-2.198334,-2.460901,-1.881360,-1.409042,-1.995450
635.000000,-2.071012,-2.449512,-2.052459,-1.423088,-1.961165
636.000000,-2.027510,-2.243569,-2.119240,-1.423449,-1.312043
637.000000,-1.959703,-2.268070,-2.248019,-1.482702,-2.103234
638.000000,-2.052145,-2.216309,-2.315370,-1.545833,-2.220587
639.000000,-2.196925,-2.247325,-2.385261,-1.610582,-2.607167
640.000000,-2.438633,-2.335255,-2.468764,-1.765118,-2.958095
641.000000,-2.657390,-2.454854,-2.503049,-1.902845,-2.663544
642.000000,-2.703113,-2.467785,-2.543379,-2.038636,-2.580220
643.000000,-2.642410,-2.467873,-2.521588,-2.160658,-2.235949
644.000000,-2.549676,-2.454533,-2.489610,-2.264152,-2.243914
645.000000,-2.440776,-2.463460,-2.486172,-2.334046,-2.361334
646.000000,-2.190417,-2.384324,-2.366500,-2.302432,-1.467708
647.000000,-1.919395,-2.249400,-2.272215,-2.258057,-1.201386
648.000000,-1.675513,-2.105651,-2.151479,-2.185891,-0.968051
649.000000,-1.473161,-1.980394,-2.069881,-2.133507,-1.171892
650.000000,-1.245743,-1.840071,-2.000648,-2.085415,-1.242558
651.000000,-1.170923,-1.705359,-1.957313,-2.032882,-1.104639
652.000000,-1.163956,-1.580033,-1.897346,-2.000519,-1.167354
653.000000,-1.127069,-1.443563,-1.835691,-1.945416,-0.772510
654.000000,-1.198925,-1.377922,-1.820776,-1.929837,-1.522517
655.000000,-1.135062,-1.227611,-1.772661,-1.891356,-0.917286
656.000000,-1.044703,-1.143799,-1.730650,-1.828049,-0.633472
657.000000,-0.813441,-1.028194,-1.641779,-1.760362,0.033963
658.000000,-0.666436,-0.941076,-1.558539,-1.687401,0.023379
659.000000,-0.311177,-0.819808,-1.462486,-1.621118,0.140965
660.000000,-0.064423,-0.679224,-1.346379,-1.556801,0.215223
661.000000,0.167576,-0.533655,-1.230048,-1.513001,0.413275
662.000000,0.066435,-0.455248,-1.148352,-1.485792,-0.526102
663.000000,-0.047767,-0.429370,-1.079805,-1.474488,-0.582341
664.000000,-0.316646,-0.340882,-1.025101,-1.477299,-1.154201
665.000000,-1.022763,-0.514848,-1.024926,-1.532963,-2.747608
666.000000,-1.853747,-0.782987,-1.096572,-1.605363,-2.762272
667.000000,-2.227109,-1.090464,-1.149168,-1.629848,-1.818645
668.000000,-2.209168,-1.240372,-1.147425,-1.602319,-0.230711
669.000000,-1.943231,-1.371332,-1.105003,-1.549483,0.330160
670.000000,-1.124390,-1.489294,-1.034868,-1.467711,0.673292
671.000000,-0.368500,-1.770742,-1.017445,-1.411765,-0.109594
672.000000,0.315972,-1.754281,-0.952558,-1.329434,0.459784
673.000000,0.485384,-1.703409,-0.930141,-1.257282,0.355484
674.000000,0.430842,-1.512073,-0.819863,-1.180361,0.141552
675.000000,0.341868,-0.763173,-0.745406,-1.069395,0.365257
676.000000,0.402265,0.022823,-0.723627,-1.018279,0.104841
677.000000,0.410934,0.659166,-0.759794,-0.965540,0.501793
678.000000,0.363512,0.764066,-0.841511,-0.940871,0.196780
679.000000,0.308833,0.662480,-0.997458,-0.908908,-0.051495
680.000000,0.271898,0.546517,-1.157926,-0.851765,0.231881
681.000000,0.558919,0.846983,-1.209527,-0.749457,1.129250
682.000000,0.692609,0.962409,-1.051314,-0.632639,0.974302
683.000000,0.585124,0.821124,-1.111782,-0.617502,-0.178751
684.000000,0.562684,0.750343,-0.944127,-0.502824,-0.123211
685.000000,0.344443,0.527075,-0.272944,-0.478041,-0.564154
686.000000,-0.318270,0.198813,0.310837,-0.546653,-1.241677
687.000000,-0.887716,-0.185397,0.618593,-0.704245,-1.091711
688.000000,-1.141502,-0.516554,0.290644,-0.896783,-1.169612
689.000000,-1.651624,-1.027262,-0.626276,-1.253959,-2.076685
690.000000,-1.921669,-1.488332,-1.530459,-1.635796,-1.708119
691.000000,-1.804264,-1.879364,-1.808650,-1.958951,-0.813117
692.000000,-1.652316,-2.118407,-2.163081,-2.117023,-0.520038
693.000000,-1.209794,-1.886809,-2.100576,-2.096759,0.600704
694.000000,-0.212019,-1.492922,-1.602088,-1.784409,1.621767
695.000000,0.857852,-0.885578,-0.866328,-0.943424,2.119530
696.000000,1.651434,-0.085100,0.186331,0.099137,2.250222
697.000000,2.435588,0.876259,1.459367,1.143404,2.772069
698.000000,2.753314,1.748129,2.517283,1.751587,2.443918
699.000000,2.673024,2.469963,3.011769,2.053337,1.926620
700.000000,2.438598,2.803651,3.074831,2.171972,1.624313
701.000000,2.237391,2.868689,2.914775,2.337143,1.592099
702.000000,2.007978,2.864258,2.845105,2.406193,1.715665
703.000000,1.830851,2.734060,2.893470,2.439174,1.639963
704.000000,1.631354,2.473377,2.763671,2.373794,1.065300
705.000000,1.492138,2.226903,2.682723,2.289851,1.014644
706.000000,1.314506,1.993152,2.620603,2.202733,0.769640
707.000000,1.181114,1.782414,2.585931,2.142378,1.067127
708.000000,1.034309,1.596186,2.531364,2.093191,0.941613
709.000000,0.922006,1.421926,2.491523,2.018428,0.545190
710.000000,0.790179,1.270688,2.415779,1.924531,0.393317
711.000000,0.780545,1.168541,2.333710,1.833552,0.725393
712.000000,0.726407,1.063821,2.256262,1.771283,0.809536
713.000000,0.698311,0.966427,2.142921,1.771887,0.810717
714.000000,0.749714,0.932480,2.003470,1.764226,0.793811
715.000000,0.901144,0.944214,1.889922,1.801283,1.125022
716.000000,0.900147,0.936142,1.757715,1.825300,0.731472
717.000000,0.874188,0.888523,1.606408,1.835391,0.679275
718.000000,0.796760,0.826854,1.459945,1.830746,0.404779
719.000000,0.720070,0.810343,1.349837,1.866117,0.369145
720.000000,0.599672,0.835723,1.277671,1.902632,0.625973
721.000000,0.410128,0.753387,1.168153,1.874413,-0.436523
722.000000,0.086675,0.619587,1.030754,1.831632,-1.412429
723.000000,-0.254157,0.481782,0.902470,1.770699,-1.549153
724.000000,-0.546781,0.393465,0.849123,1.710153,-0.258850
725.000000,-1.339089,0.141043,0.770765,1.610932,-1.378422
726.000000,-1.530226,-0.019190,0.743174,1.532329,-0.070202
727.000000,-1.515349,-0.383040,0.642576,1.391704,-1.511671
728.000000,-1.389997,-0.851588,0.543302,1.257135,-1.422432
729.000000,-1.648767,-1.511912,0.476090,1.145169,-1.354033
730.000000,-1.185499,-2.034153,0.473652,1.081043,0.178464
731.000000,-1.362905,-2.103679,0.391097,0.992081,-0.732816
732.000000,-1.369938,-1.919036,0.241742,0.865595,-1.518234
733.000000,-1.157820,-1.630719,0.098852,0.753689,-0.635563
734.000000,-0.847004,-1.578769,-0.060586,0.690857,-0.236935
735.000000,-1.471065,-1.669876,-0.479917,0.575581,-1.978319
736.000000,-1.737687,-1.926342,-0.924436,0.476372,-1.752115
737.000000,-1.804623,-1.949405,-1.481378,0.325391,-1.836451
738.000000,-2.503760,-2.278818,-2.185572,0.083933,-3.181597
739.000000,-2.840298,-2.407924,-2.590749,-0.120542,-2.417529
740.000000,-2.636623,-2.532697,-2.711529,-0.306088,-1.780577
741.000000,-2.499534,-2.504234,-2.570457,-0.579383,-1.691131
742.000000,-2.556034,-2.533740,-2.477614,-1.007571,-2.428678
743.000000,-2.201469,-2.495345,-2.346123,-1.421612,-1.671383
744.000000,-1.963988,-2.448629,-2.297674,-1.815287,-1.429952
745.000000,-1.940975,-2.340505,-2.244378,-2.215923,-1.752948
746.000000,-2.045375,-2.333609,-2.306112,-2.451093,-2.220863
747.000000,-2.052427,-2.349913,-2.317371,-2.566914,-2.409127
748.000000,-2.200693,-2.260382,-2.328689,-2.569432,-2.372148
749.000000,-2.334517,-2.220407,-2.325227,-2.523676,-2.201712
750.000000,-2.193433,-2.125090,-2.285617,-2.417224,-1.267880
751.000000,-1.983121,-2.046558,-2.219769,-2.282576,-1.237368
752.000000,-1.846913,-1.968084,-2.177150,-2.192541,-1.714473
753.000000,-1.660136,-1.928245,-2.142214,-2.116695,-1.468067
754.000000,-1.502851,-1.911103,-2.120276,-2.088877,-1.458799
755.000000,-1.507101,-1.854504,-2.050021,-2.036603,-1.324125
756.000000,-1.542612,-1.777678,-2.005350,-2.026264,-1.449549
757.000000,-1.448513,-1.664766,-1.951906,-1.978852,-1.269098
758.000000,-1.493925,-1.598857,-1.886912,-1.962155,-1.684147
759.000000,-1.582011,-1.567855,-1.861913,-1.959280,-1.867759
760.000000,-1.667240,-1.612002,-1.853505,-1.974610,-1.743307
761.000000,-1.764706,-1.678702,-1.861448,-1.982506,-1.929567
762.000000,-1.886489,-1.697547,-1.839365,-1.975145,-1.896848
763.000000,-1.860080,-1.705698,-1.826861,-1.964448,-1.578140
764.000000,-1.752180,-1.688628,-1.809944,-1.948473,-1.325711
765.000000,-1.733912,-1.719630,-1.800363,-1.924689,-1.649550
766.000000,-1.725208,-1.762373,-1.786212,-1.917910,-1.889107
767.000000,-1.723725,-1.822799,-1.762913,-1.910530,-1.890623
768.000000,-1.635410,-1.766477,-1.698631,-1.846864,-1.148906
769.000000,-1.506948,-1.647669,-1.618025,-1.783565,-0.668539
770.000000,-1.468212,-1.619977,-1.622752,-1.768489,-1.440353
771.000000,-1.197361,-1.485701,-1.586140,-1.725271,-0.516388
772.000000,-0.901789,-1.347186,-1.528481,-1.665878,-0.459468
773.000000,-0.645949,-1.191429,-1.461776,-1.611254,0.155411
774.000000,-0.372683,-1.013651,-1.376508,-1.551993,0.803201
775.000000,0.045361,-0.828588,-1.321139,-1.502862,0.413331
776.000000,0.173230,-0.635885,-1.279140,-1.455853,-0.040617
777.000000,0.473564,-0.339819,-1.214845,-1.380140,0.807328
778.000000,0.530353,-0.160534,-1.143060,-1.315068,0.343945
779.000000,0.341917,-0.071648,-1.068876,-1.262018,-0.015577
780.000000,0.347193,0.195985,-0.981542,-1.232669,0.445148
781.000000,0.297791,0.254869,-0.908490,-1.228048,-0.347926
782.000000,0.058246,0.322228,-0.822871,-1.203217,-0.239956
783.000000,-0.084216,0.289264,-0.757028,-1.190621,-0.265052
784.000000,0.026939,0.234845,-0.672736,-1.160284,0.513913
785.000000,0.049566,0.256552,-0.541702,-1.135670,0.639501
786.000000,0.543551,0.487235,-0.303992,-1.077428,1.664607
787.000000,0.929289,0.538143,-0.043883,-1.042560,1.197023
788.000000,1.327139,0.689121,0.187314,-0.979026,1.229328
789.000000,1.668901,1.038577,0.470773,-0.864061,1.905992
790.000000,1.582348,1.068429,0.814726,-0.797312,0.487154
791.000000,1.376968,1.277635,1.100454,-0.677128,0.920032
792.000000,1.210794,1.372142,1.357980,-0.546391,0.532873
793.000000,0.966271,1.392822,1.448868,-0.437724,0.158371
794.000000,0.326042,1.168654,1.279374,-0.394842,-0.782629
795.000000,0.038093,0.961239,1.147532,-0.284672,-0.728193
796.000000,-0.228716,0.716814,1.142023,-0.035700,-0.111819
797.000000,-0.236130,0.653780,1.070496,0.369737,0.728218
798.000000,0.058542,0.691959,1.150747,0.815834,1.575652
799.000000,1.122002,0.823045,1.423933,1.412704,2.794409
800.000000,1.752378,0.941908,1.404206,1.932001,0.894782
801.000000,2.311996,1.105898,1.546586,2.188826,1.498598
802.000000,2.464926,1.390688,1.658120,2.311425,1.396676
803.000000,2.569805,2.026687,1.850916,2.344095,2.271042
804.000000,2.210756,2.761385,1.921256,2.235231,1.951436
805.000000,2.226224,3.098924,1.935976,2.145435,1.434272
806.000000,2.197627,3.145063,1.908474,2.143579,1.747124
807.000000,2.258639,3.000873,1.964803,2.085377,1.998425
808.000000,2.048887,2.734038,1.978653,2.046737,1.595429
809.000000,1.922430,2.396208,1.931713,2.039275,1.556896
810.000000,1.879569,2.318400,1.995750,1.992438,1.425515
811.000000,1.676388,2.136129,1.969222,1.972363,0.941190
812.000000,1.426363,1.990005,1.968542,1.946217,0.871364
813.000000,1.270867,1.787384,1.997484,1.930329,0.879630
814.000000,1.162578,1.664540,2.102439,1.895383,1.073217
815.000000,0.960306,1.541957,2.128865,1.836021,0.505494
816.000000,0.790456,1.353615,2.064844,1.723674,0.168480
817.000000,0.593407,1.120560,1.941939,1.643714,-0.017376
818.000000,0.275840,0.872881,1.756602,1.544647,-0.543715
819.000000,-0.075536,0.629255,1.518625,1.419225,-0.456168
820.000000,-0.257426,0.413596,1.423465,1.386560,-0.291419
821.000000,-0.352762,0.263757,1.308342,1.336638,-0.243091
822.000000,-0.278328,0.191181,1.245603,1.342325,0.339653
823.000000,-0.056161,0.130816,1.140786,1.376788,0.460034
824.000000,0.387578,0.166537,1.128065,1.522304,1.606977
825.000000,0.831396,0.283828,1.152282,1.661819,1.738573
826.000000,1.319311,0.453277,1.150977,1.756493,1.736685
827.000000,1.530466,0.568250,1.077456,1.764844,0.774674
828.000000,1.884755,0.870418,1.072358,1.764187,1.467241
829.000000,1.954472,1.279010,1.103618,1.720076,2.035859
830.000000,1.969218,1.689095,1.154047,1.764908,1.965794
831.000000,1.925761,2.076406,1.249993,1.770755,1.718923
832.000000,2.187713,2.408355,1.407514,1.803621,2.159136
833.000000,2.137107,2.539888,1.519369,1.762985,1.591201
834.000000,2.178563,2.536849,1.692828,1.786412,2.328202
835.000000,2.277327,2.535154,1.960671,1.854802,2.478115
836.000000,2.187568,2.390140,2.145729,1.844036,1.581592
837.000000,2.054771,2.360030,2.315372,1.821610,1.645134
838.000000,2.010501,2.265960,2.471850,1.816092,1.556222
839.000000,1.718839,2.068625,2.505240,1.767511,0.957663
840.000000,1.332046,1.867370,2.449388,1.703658,0.604326
841.000000,1.215184,1.763797,2.423308,1.698936,1.011794
842.000000,0.945728,1.557058,2.287050,1.651455,0.345813
843.000000,0.683980,1.410828,2.156567,1.602073,0.304091
844.000000,0.596076,1.230926,1.993009,1.558754,0.538764
845.000000,0.603259,1.038776,1.860532,1.555567,0.635953
846.000000,0.519829,0.936426,1.750675,1.572818,0.629374
847.000000,0.473220,0.769012,1.661098,1.569437,0.103184
848.000000,0.533751,0.658521,1.589834,1.625571,0.601401
849.000000,0.584498,0.634439,1.516152,1.690831,0.821912
850.000000,0.539719,0.614393,1.427982,1.724559,0.400198
851.000000,0.462886,0.526975,1.349117,1.752136,0.210909
852.000000,0.582127,0.547547,1.263043,1.763114,0.514729
853.000000,0.597222,0.587956,1.213342,1.772762,0.650056
854.000000,0.654355,0.644533,1.136395,1.742010,1.225815
855.000000,0.921111,0.717134,1.043403,1.713718,1.441332
856.000000,1.155686,0.766587,0.990678,1.672597,0.958313
857.000000,1.212033,0.901694,0.914463,1.656984,0.515513
858.000000,1.186043,0.945088,0.833878,1.614940,0.326188
859.000000,0.890505,0.898160,0.789299,1.546337,-0.128495
860.000000,0.420460,0.915593,0.772904,1.475794,-0.342170
861.000000,-0.126777,0.890474,0.691180,1.403332,-0.922586
862.000000,-0.247027,0.931298,0.726120,1.332677,0.193290
863.000000,0.540238,1.461798,0.914021,1.359087,2.679935
864.000000,1.404244,1.822370,1.109334,1.332933,2.366061
865.000000,2.026908,1.903520,1.293314,1.262599,1.907903
866.000000,2.156020,1.660502,1.378005,1.189665,0.169226
867.000000,2.015824,1.507967,1.570453,1.104145,0.095551
868.000000,1.584206,1.608744,1.736489,1.049812,1.017982
869.000000,1.095530,1.698737,1.796750,1.032659,0.664413
870.000000,0.362914,1.550137,1.759814,1.000083,-0.671556
871.000000,0.245643,1.588496,1.746398,0.942563,-0.246409
872.000000,0.504062,1.672733,1.817701,1.007217,1.041370
873.000000,0.766113,1.501504,1.953152,1.128941,1.920331
874.000000,0.903785,1.228646,1.889848,1.203563,1.071105
875.000000,1.546202,1.139542,1.848790,1.302652,1.484045
876.000000,1.490815,1.018139,1.630886,1.302460,-0.522442
877.000000,0.629325,0.678499,1.314614,1.294984,-1.957590
878.000000,-0.026479,0.496581,1.256023,1.332401,-0.140361
879.000000,-0.113774,0.558563,1.358484,1.402456,0.807174
880.000000,-0.402199,0.901895,1.462919,1.524935,0.741934
881.000000,0.355469,1.375183,1.685381,1.720920,1.430589
882.000000,1.251358,1.297373,1.649660,1.758301,0.228276
883.000000,1.401679,0.948189,1.363185,1.759760,0.200526
884.000000,0.904555,0.573819,1.035741,1.631485,-0.457485
885.000000,0.640034,0.149297,0.837021,1.521556,0.098798
886.000000,0.155368,0.463803,0.873022,1.476908,0.298297
887.000000,0.705124,1.751842,1.080931,1.591229,1.489513
888.000000,0.916027,2.023014,1.091224,1.624546,0.705244
889.000000,1.520740,2.106440,1.213740,1.726556,1.077673
890.000000,1.744887,2.097250,1.485728,1.796871,0.723870
891.000000,1.744133,1.720015,1.676263,1.851826,0.176392
892.000000,0.980112,1.538218,1.578857,1.761586,-0.586128
893.000000,0.476508,1.317854,1.271829,1.464153,-0.492162
894.000000,-0.392115,1.207414,0.995814,1.163426,-0.835021
895.000000,-1.168039,0.777411,0.516041,0.894474,-1.099343
896.000000,-2.125440,-0.266921,0.151480,0.675304,-2.302543
897.000000,-2.238828,-1.424893,0.358097,0.566447,-1.226500
898.000000,-2.407511,-2.207187,0.001852,0.304377,-1.503088
899.000000,-2.379214,-2.757123,-0.633413,0.064705,-1.341809
900.000000,-2.046124,-2.715344,-1.009639,0.108853,-0.376723
901.000000,-1.900598,-2.862501,-2.065396,-0.162605,-1.930181
902.000000,-1.829115,-2.662678,-2.377452,-0.580860,-1.204722
903.000000,-1.329407,-2.294260,-2.205551,-0.937548,0.150489
904.000000,-0.630625,-1.798592,-1.684926,-0.949210,1.146537
905.000000,0.671529,-0.765044,-0.567754,-0.371279,3.391578
906.000000,2.263796,0.498216,0.518712,0.696204,2.926779
907.000000,3.010835,1.447319,1.189216,1.963201,2.475469
908.000000,3.052991,2.154252,1.806233,2.535086,1.934805
909.000000,2.942196,2.636402,2.258086,2.793359,1.983773
910.000000,2.568491,2.815647,2.643139,2.930342,2.018419
911.000000,2.244402,2.953102,2.833522,2.823819,1.700548
912.000000,2.004222,2.900702,2.925827,2.790787,1.501857
913.000000,1.859652,2.734778,2.896149,2.720355,1.385216
914.000000,1.767416,2.585077,2.902731,2.730523,1.604070
915.000000,1.646681,2.305524,2.866040,2.665277,1.487044
916.000000,1.545046,2.066913,2.836957,2.561651,1.263024
917.000000,1.471211,1.888161,2.724546,2.407036,1.197004
918.000000,1.387360,1.754123,2.620503,2.300510,1.029398
919.000000,1.232280,1.609748,2.508493,2.178616,0.878931
920.000000,1.090329,1.463639,2.371932,2.086020,0.815321
921.000000,1.024131,1.372541,2.327761,2.041225,0.948841
922.000000,0.915277,1.273690,2.239050,1.997889,0.681854
923.000000,0.767387,1.150468,2.097980,1.925191,0.320873
924.000000,0.646456,1.005945,1.956508,1.872951,0.290649
925.000000,0.544892,0.878689,1.761114,1.840159,0.319838
926.000000,0.654377,0.903305,1.676517,1.933623,1.524254
927.000000,0.789166,0.913832,1.599926,1.965965,1.333300
928.000000,1.048523,0.960771,1.561905,2.008830,1.511403
929.000000,1.187203,0.956412,1.480918,1.998913,0.820061
930.000000,1.335826,0.966230,1.403189,1.966614,0.854898
931.000000,1.074151,0.897115,1.311741,1.943699,0.079822
932.000000,0.717166,0.811363,1.209081,1.889577,-0.777763
933.000000,0.379603,0.850002,1.152286,1.848328,0.111912
934.000000,0.168637,0.911840,1.079938,1.795617,0.015899
935.000000,-0.301264,0.951037,0.996357,1.673579,-0.529857
936.000000,-0.505180,0.757990,0.930090,1.563582,-0.315854
937.000000,0.241883,0.710491,0.918909,1.502975,1.427530
938.000000,0.494033,0.525040,0.904947,1.449628,0.845727
939.000000,0.225736,0.256111,0.851032,1.357838,-0.786624
940.000000,0.048574,-0.245677,0.790346,1.256372,-1.011761
941.000000,-0.327046,-0.713504,0.692410,1.162033,-1.327658
942.000000,-0.258129,0.004495,0.750360,1.148196,1.494548
943.000000,0.201878,0.690376,0.902093,1.153182,1.867039
944.000000,1.475451,1.657069,1.138962,1.162072,2.347751
945.000000,2.412188,2.421146,1.390011,1.164001,1.888297
946.000000,2.890363,2.705593,1.418642,1.163121,1.380901
947.000000,2.796477,2.734849,1.570400,1.200572,2.039908
948.000000,2.587868,2.756582,1.671590,1.245929,1.772171
949.000000,2.242509,2.867812,1.869270,1.293665,1.411177
950.000000,2.096392,2.945484,2.078230,1.364164,1.567413
951.000000,1.957953,2.895564,2.264366,1.401606,1.081828
952.000000,1.703367,2.591180,2.447328,1.470742,1.087634
953.000000,1.452626,2.293113,2.395459,1.565949,0.772363
954.000000,1.209923,1.958929,2.289495,1.651241,0.380659
955.000000,0.864107,1.692183,2.215546,1.727021,0.084104
956.000000,0.568821,1.474174,2.105390,1.643952,-0.132066
957.000000,0.419831,1.265305,1.965437,1.614889,0.560863
958.000000,0.341817,1.078343,1.869210,1.540429,0.514612
959.000000,0.275719,0.889989,1.846131,1.505250,0.124083
960.000000,0.260566,0.660621,1.827690,1.447586,0.021325
961.000000,0.207751,0.452015,1.799982,1.429154,-0.361251
962.000000,-0.068414,0.205966,1.599662,1.446195,-0.643876
963.000000,-0.379173,-0.016518,1.382369,1.375288,-0.821628
964.000000,-0.691273,-0.229756,1.108020,1.280917,-1.193558
965.000000,-1.034363,-0.421507,0.856951,1.211775,-1.360231
966.000000,-1.224057,-0.550087,0.667590,1.161549,-1.085673
967.000000,-1.332614,-0.790470,0.389950,1.016056,-1.115925
968.000000,-1.282505,-0.967772,0.152864,0.938407,-0.650805
969.000000,-1.187622,-1.114207,-0.083560,0.947242,-0.816177
970.000000,-0.925159,-1.179427,-0.311134,1.033159,-0.215739
971.000000,-0.759589,-1.213949,-0.524036,1.155639,-0.351031
972.000000,-0.564071,-1.186045,-0.768407,1.096230,-0.307942
973.000000,-0.549571,-1.162247,-1.017093,0.964327,-0.654677
974.000000,-0.594391,-1.127962,-1.248506,0.697274,-1.167091
975.000000,-0.645007,-0.974986,-1.333190,0.487668,-0.502007
976.000000,-0.477562,-0.749810,-1.281025,0.405332,0.446474
977.000000,-0.244395,-0.475755,-1.285229,0.203244,0.847589
978.000000,-0.225645,-0.441425,-1.423254,-0.261633,-0.610875
979.000000,0.025591,-0.331429,-1.431474,-0.726715,-0.106239
980.000000,0.453762,-0.156530,-1.278257,-1.108006,1.482490
981.000000,0.642265,0.015666,-1.094123,-1.436593,1.281701
982.000000,0.999327,0.317816,-0.793940,-1.518996,2.293841
983.000000,1.620233,0.637857,-0.536405,-1.502780,1.631616
984.000000,1.716503,0.882789,-0.365327,-1.591351,0.129800
985.000000,1.241469,0.955124,-0.227112,-1.653958,-0.472491
986.000000,2.185596,1.665581,0.408146,-0.385553,3.846198
987.000000,2.799965,2.350897,1.149605,0.877461,3.539614
988.000000,3.047720,2.855153,1.704438,1.865567,2.701235
989.000000,3.252575,3.033936,2.190779,2.684216,2.487682
990.000000,3.255148,2.918541,2.452016,3.047068,2.100421
991.000000,2.757678,2.782812,2.596036,3.158163,1.811990
992.000000,2.392036,2.640731,2.670009,3.193472,1.907346
993.000000,2.223856,2.579664,2.709468,3.175236,1.990448
994.000000,2.043137,2.549353,2.681968,3.085309,1.713550
995.000000,1.995130,2.562500,2.629290,3.020856,1.922305
996.000000,1.839639,2.280721,2.461385,2.830982,1.164533
997.000000,1.655895,2.023193,2.308914,2.674836,1.042491
998.000000,1.450362,1.841489,2.227077,2.526557,0.988818
999.000000,1.271305,1.670603,2.134736,2.399505,0.836929
1000.000000,1.017412,1.529239,2.018770,2.264122,0.725820
1001.000000,0.892094,1.403340,1.920031,2.144891,0.566530
1002.000000,0.804075,1.276419,1.823564,2.051164,0.623671
1003.000000,0.674191,1.112342,1.741699,1.966716,0.368691
1004.000000,0.585829,0.980426,1.706559,1.913495,0.415485
1005.000000,0.473748,0.793200,1.677121,1.841943,0.181337
1006.000000,0.369263,0.678566,1.538016,1.756135,0.056577
1007.000000,0.227494,0.566676,1.391277,1.674694,-0.026854
1008.000000,0.242237,0.505560,1.299992,1.659015,0.473297
1009.000000,0.238297,0.457386,1.211794,1.638184,0.439722
1010.000000,0.313647,0.429851,1.143783,1.601977,0.535048
1011.000000,0.477165,0.444988,1.099580,1.585537,0.768374
1012.000000,0.540859,0.387708,1.015935,1.536107,0.079877
1013.000000,0.480848,0.371793,0.921932,1.508717,0.129922
1014.000000,0.525022,0.390947,0.860404,1.527556,0.614372
1015.000000,0.597469,0.471021,0.777587,1.566070,1.049905
1016.000000,0.600882,0.598321,0.753306,1.506840,0.994835
1017.000000,0.914660,0.785794,0.737712,1.434155,1.025665
1018.000000,1.233748,0.885223,0.723206,1.379768,0.922175
1019.000000,1.216367,0.986991,0.719074,1.322018,0.762195
1020.000000,1.162862,1.090903,0.736089,1.279355,0.898788
1021.000000,0.808210,0.943523,0.729959,1.224248,-0.386539
1022.000000,0.496689,0.987444,0.722514,1.158806,-0.220067
1023.000000,0.261379,0.987247,0.767760,1.078155,-0.025075
1024.000000,0.152445,0.871256,0.831545,1.012961,0.345345
1025.000000,-0.223688,0.620386,0.884106,0.890540,-0.660096
1026.000000,-0.560637,0.200912,0.890005,0.797198,-1.837382
1027.000000,-0.883275,-0.192309,0.952494,0.711323,-1.436763
1028.000000,-1.333057,-0.639918,0.785063,0.608648,-1.700336
1029.000000,-1.986925,-1.189721,0.395904,0.482720,-2.276152
1030.000000,-2.076369,-1.581343,-0.085163,0.379657,-1.402890
1031.000000,-2.071352,-1.827360,-1.134556,0.250403,-1.962514
1032.000000,-2.372930,-2.232580,-2.359972,0.019554,-2.800802
1033.000000,-2.397890,-2.422093,-3.021556,-0.186497,-2.102301
1034.000000,-2.128396,-2.437704,-3.102413,-0.382216,-1.274086
1035.000000,-1.890093,-2.249386,-2.964408,-0.509635,-0.558281
1036.000000,-1.689273,-2.073357,-2.905547,-0.685596,-1.008876
1037.000000,-1.234232,-1.911778,-2.761863,-0.842744,-0.632008
1038.000000,-0.945999,-1.773330,-2.656733,-1.137404,-0.792245
1039.000000,-0.877064,-1.619517,-2.573463,-1.435710,-0.978036
1040.000000,-1.046748,-1.600495,-2.551751,-1.756698,-1.354442
1041.000000,-1.058646,-1.496014,-2.407497,-1.984004,-1.098415
1042.000000,-1.299230,-1.378146,-2.369334,-2.099576,-1.732955
1043.000000,-1.463505,-1.312973,-2.324995,-2.151617,-1.577838
1044.000000,-1.650425,-1.379310,-2.327457,-2.250638,-1.874404
1045.000000,-1.606451,-1.431789,-2.217004,-2.264572,-1.211215
1046.000000,-1.663509,-1.467460,-2.101608,-2.288731,-1.452795
1047.000000,-1.369301,-1.413114,-1.935356,-2.207753,-0.270695
1048.000000,-1.226055,-1.411597,-1.825707,-2.179852,-0.832108
1049.000000,-0.987568,-1.387671,-1.699574,-2.142606,-0.742794
1050.000000,-0.758106,-1.264862,-1.587269,-2.080246,-0.022046
1051.000000,-0.478583,-1.192313,-1.474218,-1.993499,-0.224970
1052.000000,-0.937764,-1.250397,-1.428424,-2.031819,-2.305070
1053.000000,-1.181823,-1.282060,-1.391685,-2.039673,-1.790146
1054.000000,-1.556095,-1.310925,-1.423413,-2.068132,-2.127457
1055.000000,-2.052387,-1.425006,-1.490943,-2.045940,-1.912624
1056.000000,-2.436293,-1.516926,-1.538765,-1.995454,-1.899203
1057.000000,-2.048089,-1.648242,-1.551445,-1.911907,-0.679847
1058.000000,-1.908085,-1.758456,-1.585499,-1.851824,-1.194899
1059.000000,-1.600134,-1.823779,-1.590989,-1.765296,-0.846630
1060.000000,-1.358658,-1.975595,-1.578126,-1.716619,-0.887922
1061.000000,-1.279611,-2.160921,-1.620758,-1.681787,-1.582164
1062.000000,-1.450565,-2.007775,-1.607607,-1.604182,-1.433509
1063.000000,-1.450777,-1.898739,-1.593544,-1.549284,-1.272403
1064.000000,-1.501950,-1.741875,-1.547385,-1.528561,-1.167132
1065.000000,-1.660589,-1.697024,-1.591225,-1.564387,-1.709815
1066.000000,-1.462700,-1.534592,-1.556235,-1.549068,-0.802985
1067.000000,-1.147111,-1.434809,-1.564900,-1.526806,0.043359
1068.000000,-0.849431,-1.269052,-1.525883,-1.499749,0.196419
1069.000000,-0.504065,-1.130827,-1.483303,-1.462965,0.462646
1070.000000,-0.015710,-1.021175,-1.505444,-1.422746,0.182688
1071.000000,0.449980,-0.729331,-1.473126,-1.373116,0.959597
1072.000000,0.604137,-0.481324,-1.311395,-1.306266,0.569926
1073.000000,0.780157,-0.191231,-1.166140,-1.237368,0.827626
1074.000000,0.766050,0.066967,-1.011459,-1.159098,0.409114
1075.000000,0.997345,0.564269,-0.818310,-1.092265,1.079105
1076.000000,0.916612,0.850225,-0.635882,-1.021135,0.665680
1077.000000,0.898713,0.954291,-0.566805,-1.037193,0.524911
1078.000000,0.563527,0.864310,-0.523565,-1.065258,-0.536046
1079.000000,0.365939,0.740026,-0.503188,-1.099459,-0.427982
1080.000000,-0.149889,0.593671,-0.518920,-1.212007,-0.963137
1081.000000,-0.855611,0.147713,-0.533962,-1.371756,-1.914994
1082.000000,-1.500675,-0.266426,-0.564935,-1.386350,-1.788366
1083.000000,-1.721714,-0.726187,-0.604193,-1.423148,-1.495194
1084.000000,-1.870939,-1.091187,-0.653384,-1.416479,-1.339666
1085.000000,-1.655844,-1.394491,-0.454550,-1.354546,-0.392481
1086.000000,-1.432992,-1.680331,-0.502298,-1.315817,-0.982709
1087.000000,-1.396372,-1.984264,-0.921988,-1.440755,-1.647567
1088.000000,-1.460395,-2.075309,-1.500459,-1.532302,-1.775388
1089.000000,-1.576192,-2.168455,-2.189261,-1.674349,-1.845862
1090.000000,-1.847148,-2.164445,-2.690607,-1.803428,-1.756948
1091.000000,-1.952779,-2.061474,-3.038999,-1.842246,-1.682448
1092.000000,-2.188757,-2.165072,-3.290304,-2.027147,-2.693354
1093.000000,-2.105383,-2.108368,-3.189335,-2.086746,-1.610480
1094.000000,-1.933800,-2.016770,-2.982846,-2.088876,-1.213809
1095.000000,-1.794309,-2.015586,-2.858617,-2.000492,-1.187307
1096.000000,-1.447142,-1.821211,-2.594864,-1.872879,-0.074489
1097.000000,-0.913688,-1.613075,-2.393693,-1.839318,-0.140721
1098.000000,-0.559642,-1.393644,-2.155166,-1.793367,0.053831
1099.000000,-0.276543,-1.178177,-1.972492,-1.763180,0.104927
1100.000000,-0.059513,-1.016824,-1.824952,-1.745003,-0.218160
1101.000000,-0.152404,-0.899945,-1.680639,-1.805082,-0.526255
1102.000000,-0.331993,-0.701408,-1.598538,-1.870864,-0.998041
1103.000000,-0.361929,-0.514647,-1.468814,-1.866434,-0.018355
1104.000000,-0.462745,-0.399610,-1.382619,-1.864091,-0.287325
1105.000000,-0.539742,-0.304448,-1.372091,-1.920319,-0.518219
1106.000000,-0.519068,-0.347815,-1.331172,-1.943995,-0.388844
1107.000000,-0.549773,-0.475285,-1.306282,-1.996441,-1.335776
1108.000000,-0.847059,-0.634879,-1.264098,-1.973935,-1.141226
1109.000000,-1.329706,-0.928846,-1.262489,-1.998328,-2.018719
1110.000000,-1.640420,-1.157246,-1.236680,-1.963217,-1.468360
1111.000000,-1.896267,-1.336425,-1.209113,-1.880078,-1.313135
1112.000000,-1.938294,-1.485966,-1.106244,-1.828652,-1.613606
1113.000000,-2.039449,-1.851408,-1.104432,-1.802689,-1.730480
1114.000000,-1.697733,-1.987908,-1.079653,-1.743634,-0.753388
1115.000000,-1.835087,-2.266269,-1.166710,-1.800228,-2.089834
1116.000000,-1.959330,-2.465618,-1.387328,-1.827589,-1.924759
1117.000000,-1.751451,-2.303758,-1.531639,-1.769424,-0.817171
1118.000000,-1.539997,-2.185077,-1.713498,-1.711723,-0.869019
1119.000000,-1.460056,-1.913824,-1.866599,-1.632621,-0.483006
1120.000000,-1.266577,-1.845159,-2.047605,-1.597094,-1.254522
1121.000000,-1.303424,-1.911395,-2.239645,-1.609069,-1.991240
1122.000000,-1.395697,-1.813101,-2.235600,-1.506018,-1.283325
1123.000000,-1.500239,-1.726319,-2.306597,-1.479237,-1.403146
1124.000000,-1.666652,-1.756178,-2.310306,-1.480730,-1.397481
1125.000000,-1.710897,-1.669200,-2.285091,-1.501153,-1.583684
1126.000000,-1.520007,-1.560721,-2.231553,-1.580355,-1.264556
1127.000000,-1.470494,-1.560730,-2.117759,-1.644974,-1.152602
1128.000000,-1.428747,-1.565535,-2.041949,-1.724773,-1.268357
1129.000000,-1.332841,-1.570051,-1.908499,-1.783626,-0.946895
1130.000000,-1.099322,-1.450251,-1.787792,-1.792497,-0.393800
1131.000000,-0.821447,-1.210794,-1.660262,-1.755426,0.177411
1132.000000,-0.480033,-1.039092,-1.513356,-1.678600,0.492239
1133.000000,0.157810,-0.759333,-1.314965,-1.618406,1.638042
1134.000000,0.528048,-0.574700,-1.249418,-1.600283,0.511104
1135.000000,0.572016,-0.434186,-1.157386,-1.610315,-0.498513
1136.000000,0.456463,-0.329046,-1.076851,-1.627729,-0.581237
1137.000000,0.434581,-0.132498,-1.027215,-1.568775,0.337210
1138.000000,0.231132,0.211172,-0.940630,-1.495245,1.146047
1139.000000,0.369309,0.542158,-0.882908,-1.385082,1.056149
1140.000000,1.099918,0.928521,-0.722922,-1.267587,1.868514
1141.000000,1.788702,1.245881,-0.484351,-1.159055,1.791712
1142.000000,2.099715,1.513874,-0.290131,-1.032793,1.675848
1143.000000,2.091162,1.495346,-0.064413,-0.899082,1.435137
1144.000000,2.440428,1.937994,0.337181,-0.731697,2.663519
1145.000000,2.389285,2.303211,0.807123,-0.482973,2.052423
1146.000000,2.233267,2.435967,1.235567,-0.246737,1.529871
1147.000000,2.144868,2.428422,1.678916,-0.057588,1.602879
1148.000000,2.230159,2.421224,2.154276,0.223753,2.100144
1149.000000,2.034635,2.385005,2.434523,0.497011,1.862383
1150.000000,2.033846,2.330781,2.564826,0.931620,2.110638
1151.000000,2.032993,2.240185,2.515708,1.428792,1.745029
1152.000000,1.971964,2.145657,2.409214,1.819091,1.512314
1153.000000,1.764252,2.044191,2.214999,2.123046,1.178177
1154.000000,1.453895,1.770903,2.051853,2.239968,0.342234
1155.000000,0.830067,1.432168,1.863299,2.174555,-1.005815
1156.000000,0.376945,1.229768,1.759858,2.112684,-0.452365
1157.000000,-0.136587,0.995601,1.616123,1.999096,-0.817763
1158.000000,-0.492911,0.768951,1.508178,1.948902,-0.267268
1159.000000,-0.750136,0.511067,1.394166,1.848206,-0.682458
1160.000000,-0.800343,0.118827,1.223668,1.691401,-1.251956
1161.000000,-1.049617,-0.300887,1.048744,1.511770,-1.462916
1162.000000,-1.246176,-0.758300,0.865989,1.324996,-1.601058
1163.000000,-1.608396,-1.221441,0.663927,1.073706,-1.829395
1164.000000,-1.977184,-1.633439,0.310994,0.841255,-2.339005
1165.000000,-2.253638,-1.880123,-0.087413,0.619228,-2.562077
1166.000000,-2.338078,-2.097231,-0.454738,0.426394,-2.125603
1167.000000,-2.361217,-2.213505,-0.870148,0.173576,-2.032352
1168.000000,-2.276287,-2.292049,-1.325543,-0.110405,-1.720197
1169.000000,-2.049354,-2.255288,-1.720505,-0.378683,-1.387938
1170.000000,-1.804431,-2.177390,-2.096804,-0.732514,-1.405890
1171.000000,-1.637113,-2.086063,-2.329218,-1.107118,-1.333169
1172.000000,-1.525886,-2.017834,-2.468997,-1.517891,-1.482242
1173.000000,-1.464434,-1.935695,-2.502548,-1.880035,-1.426970
1174.000000,-1.423017,-1.796432,-2.418585,-2.220261,-1.221833
1175.000000,-1.305897,-1.606957,-2.233515,-2.355976,-0.860648
1176.000000,-1.167395,-1.446379,-2.096457,-2.361909,-0.659167
1177.000000,-0.981775,-1.291242,-1.961438,-2.332673,-0.559945
1178.000000,-0.703913,-1.118340,-1.838047,-2.266406,-0.040571
1179.000000,-0.416706,-0.961962,-1.708100,-2.173434,0.203994
1180.000000,-0.276648,-0.846782,-1.607473,-2.145093,-0.202861
1181.000000,-0.099134,-0.703667,-1.494162,-2.072380,0.208043
1182.000000,0.120060,-0.516759,-1.379564,-1.991035,0.493596
1183.000000,0.416465,-0.239642,-1.222341,-1.864521,1.558583
1184.000000,0.757301,0.066029,-1.035893,-1.713313,1.842650
1185.000000,1.336619,0.403399,-0.809518,-1.505680,2.158007
1186.000000,1.771896,0.745466,-0.601775,-1.354978,1.973226
1187.000000,2.056157,1.105603,-0.382156,-1.206455,1.863425
1188.000000,2.136782,1.436757,-0.142598,-1.078862,2.055136
1189.000000,2.110179,1.705309,0.092235,-0.950833,1.841928
1190.000000,2.033445,1.994734,0.373194,-0.792305,1.864147
1191.000000,2.046606,2.197665,0.722592,-0.587487,2.088954
1192.000000,2.056018,2.294825,1.136767,-0.350264,2.004532
1193.000000,2.009242,2.256174,1.570550,-0.064076,1.901010
1194.000000,1.943872,2.162793,1.921586,0.284313,1.642794
1195.000000,1.852012,2.035995,2.140571,0.700800,1.507319
1196.000000,1.725213,1.937458,2.257688,1.133725,1.480344
1197.000000,1.574252,1.833869,2.278046,1.548704,1.256340
1198.000000,1.423922,1.719789,2.213855,1.889000,1.144264
1199.000000,1.317985,1.633122,2.127893,2.128142,1.111966
1200.000000,1.211729,1.539329,2.060804,2.270566,0.974286
1201.000000,1.109725,1.431751,1.981006,2.334512,0.974225
1202.000000,1.052901,1.333353,1.904166,2.356502,0.977231
1203.000000,0.983366,1.226454,1.796545,2.324458,0.791957
1204.000000,0.932443,1.150337,1.704406,2.267716,0.866200
1205.000000,0.901053,1.081708,1.609083,2.184761,0.813006
1206.000000,0.888241,1.021858,1.536844,2.105915,0.924206
1207.000000,0.879191,0.987055,1.477060,2.034013,0.956432
1208.000000,0.864634,0.941885,1.405609,1.938755,0.668991
1209.000000,0.769767,0.873116,1.337192,1.840631,0.323136
1210.000000,0.742753,0.845279,1.283511,1.788955,0.670326
1211.000000,0.688922,0.818123,1.219188,1.735099,0.706188
1212.000000,0.577956,0.772415,1.150313,1.680817,0.441832
1213.000000,0.492966,0.737232,1.078068,1.607625,0.173652
1214.000000,0.577983,0.712808,1.027578,1.547039,0.670682
1215.000000,0.757399,0.758288,1.003413,1.495657,1.809676
1216.000000,1.129788,0.843177,0.993152,1.464028,2.515203
1217.000000,1.693371,0.959369,1.004724,1.440819,2.636662
1218.000000,2.645764,1.308622,1.067918,1.437052,3.574729
1219.000000,3.241679,1.843913,1.152196,1.447862,3.274539
1220.000000,3.459820,2.420845,1.289266,1.471813,3.287765
1221.000000,3.491265,2.965736,1.486448,1.505883,3.368044
1222.000000,3.281834,3.156456,1.665549,1.526798,2.578130
1223.000000,2.858265,3.085694,1.811968,1.526720,1.813368
1224.000000,2.556554,2.949415,1.939935,1.540126,1.774301
1225.000000,2.245763,2.753139,2.040123,1.553083,1.576352
1226.000000,1.878777,2.553216,2.094321,1.560461,1.427622
1227.000000,1.525443,2.324656,2.072897,1.553763,0.826096
1228.000000,1.256141,2.044572,2.036351,1.538500,0.480846
1229.000000,0.993319,1.806026,2.016501,1.525154,0.459327
1230.000000,0.769692,1.570761,1.967162,1.522461,0.473625
1231.000000,0.549611,1.291576,1.907958,1.515482,0.376067
1232.000000,0.459086,1.073389,1.863484,1.508536,0.397743
1233.000000,0.428967,0.921843,1.825900,1.509923,0.332537
1234.000000,0.398625,0.766539,1.775618,1.504531,0.310188
1235.000000,0.244576,0.564680,1.665464,1.473858,-0.287313
1236.000000,0.102603,0.368726,1.549333,1.436659,-0.314444
1237.000000,-0.013620,0.259096,1.452706,1.407496,-0.140164
1238.000000,-0.008697,0.246967,1.355502,1.421647,0.399826
1239.000000,0.027968,0.251457,1.267062,1.461110,0.545534
1240.000000,0.063614,0.180499,1.119571,1.451382,-0.165987
1241.000000,0.086528,0.107702,0.928393,1.438423,-0.283042
1242.000000,-0.104415,-0.061987,0.717438,1.402165,-1.159345
1243.000000,-0.402010,-0.208452,0.562566,1.392790,-0.931175
1244.000000,-0.728719,-0.346302,0.406656,1.387535,-0.742759
